Data1,Data2
0.0,0.1959211944247643
0.0009765625,4.39445287670991
0.001953125,8.455027160874778
0.0029296875,12.243102819972332
0.00390625,15.6309509290584
0.0048828125,18.501003942344237
0.005859375,20.749117552643607
0.0068359375,22.287687399880706
0.0078125,23.048542469621218
0.0087890625,22.985516928979155
0.009765625,22.07658496550256
0.0107421875,20.325431678373832
0.01171875,17.762329657332383
0.0126953125,14.444197499415324
0.013671875,10.453734342713677
0.0146484375,5.89755386210608
0.015625,0.9032814273092271
0.0166015625,-4.38437234277927
0.017578125,-9.808492104245218
0.0185546875,-15.20566311170356
0.01953125,-20.41231271423012
0.0205078125,-25.271444635873518
0.021484375,-29.63947669549556
0.0224609375,-33.39285941314275
0.0234375,-36.434135844810726
0.0244140625,-38.69710451564362
0.025390625,-40.150768913219856
0.0263671875,-40.80179886597918
0.02734375,-40.69529015387082
0.0283203125,-39.9136864372022
0.029296875,-38.573818395962974
0.0302734375,-36.82211413032359
0.03125,-34.82813689718743
0.0322265625,-32.77670517983218
0.033203125,-30.85893982810452
0.0341796875,-29.2626577799791
0.03515625,-28.162586520602193
0.0361328125,-27.710903821067397
0.037109375,-28.02861058961326
0.0380859375,-29.19821953834601
0.0390625,-31.258189180927676
0.0400390625,-34.199453469871216
0.041015625,-37.96429582670123
0.0419921875,-42.44769753072641
0.04296875,-47.50116071431247
0.0439453125,-52.93887268572472
0.044921875,-58.54594851177304
0.0458984375,-64.08837025758602
0.046875,-69.32414104267757
0.0478515625,-74.01509625171812
0.048828125,-77.93876766506908
0.0498046875,-80.89968216712035
0.05078125,-82.73949643309
0.0517578125,-83.34542203424958
0.052734375,-82.65647923471187
0.0537109375,-80.66722807450826
0.0546875,-77.42875624216505
0.0556640625,-73.04684757725839
0.056640625,-67.67740482227912
0.0576171875,-61.51934708072253
0.05859375,-54.80533806934941
0.0595703125,-47.790818007266886
0.060546875,-40.741903252239645
0.0615234375,-33.92277839056609
0.0625,-27.583232005464133
0.0634765625,-21.946978304157
0.064453125,-17.201362763076293
0.0654296875,-13.488973517472244
0.06640625,-10.901575803088873
0.0673828125,-9.476660343101496
0.068359375,-9.19675538691174
0.0693359375,-9.991504151214619
0.0703125,-11.742362987900828
0.0712890625,-14.289638853952301
0.072265625,-17.44146504707884
0.0732421875,-20.984218086189358
0.07421875,-24.69381099162287
0.0751953125,-28.34726227521196
0.076171875,-31.733937020525413
0.0771484375,-34.66588593853296
0.078125,-36.98676778996904
0.0791015625,-38.57892598261352
0.080078125,-39.368296001361735
0.0810546875,-39.32694012950785
0.08203125,-38.473132587151476
0.0830078125,-36.869044503436115
0.083984375,-34.61619711731229
0.0849609375,-31.848957013612452
0.0859375,-28.72643388157718
0.0869140625,-25.42320537223927
0.087890625,-22.119332832358843
0.0888671875,-18.99014528348637
0.08984375,-16.196257869761823
0.0908203125,-13.874257425573974
0.091796875,-12.128435362714509
0.0927734375,-11.02388120569664
0.09375,-10.581173864508793
0.0947265625,-10.772827376999276
0.095703125,-11.52156844172274
0.0966796875,-12.700449153038454
0.09765625,-14.134733663988426
0.0986328125,-15.605444701257172
0.099609375,-16.854416424869655
0.1005859375,-17.590674296619024
0.1015625,-17.497949448295174
0.1025390625,-16.243132535729572
0.103515625,-13.485477430859019
0.1044921875,-8.886375019291206
0.10546875,-2.1195283193933085
0.1064453125,7.11863123486502
0.107421875,19.098443077771204
0.1083984375,34.04659295053138
0.109375,52.135937303176
0.1103515625,73.47576996021924
0.111328125,98.10275179116289
0.1123046875,125.97275603631721
0.11328125,156.9539147896254
0.1142578125,190.8211816392235
0.115234375,227.252746851565
0.1162109375,265.828649920344
0.1171875,306.03192528506435
0.1181640625,347.2525868033286
0.119140625,388.79470252849154
0.1201171875,429.88673233473145
0.12109375,469.6951975240108
0.1220703125,507.34162612914423
0.123046875,541.9225744533389
0.1240234375,572.5323704669289
0.125,598.2880654874069
0.1259765625,618.3559257288049
0.126953125,631.9786540945681
0.1279296875,638.5024143909792
0.12890625,637.4026438989949
0.1298828125,628.3075938199196
0.130859375,611.0185367607144
0.1318359375,585.5256302800834
0.1328125,552.0185272041707
0.1337890625,510.89097579740707
0.134765625,462.7388519287153
0.1357421875,408.3513042681665
0.13671875,348.6949628785085
0.1376953125,284.8914497243903
0.138671875,218.18872335267434
0.1396484375,149.9270750672718
0.140625,81.50085583179346
0.1416015625,14.317237944096115
0.142578125,-50.24650940093019
0.1435546875,-110.88563675690179
0.14453125,-166.4087827446333
0.1455078125,-215.7754796519683
0.146484375,-258.1287819073063
0.1474609375,-292.82167416944907
0.1484375,-319.4361517205844
0.1494140625,-337.7941567843483
0.150390625,-347.95988749036724
0.1513671875,-350.23335627658423
0.15234375,-345.1354447110343
0.1533203125,-333.38506442256505
0.154296875,-315.86937157981566
0.1552734375,-293.6082787335839
0.15625,-267.7147483550962
0.1572265625,-239.35252527383943
0.158203125,-209.69306200984022
0.1591796875,-179.87340704882016
0.16015625,-150.9567608448645
0.1611328125,-123.89726125751882
0.162109375,-99.51034664637822
0.1630859375,-78.44977190264407
0.1640625,-61.19203415161123
0.1650390625,-48.02861678447273
0.166015625,-39.06610026794823
0.1669921875,-34.23383365757637
0.16796875,-33.29852919212252
0.1689453125,-35.88484963546531
0.169921875,-41.50081776856381
0.1708984375,-49.56670029335744
0.171875,-59.4459116137049
0.1728515625,-70.47644993490057
0.173828125,-82.00141843019543
0.1748046875,-93.39729358742913
0.17578125,-104.09877354716325
0.1767578125,-113.61926052468759
0.177734375,-121.56629019629696
0.1787109375,-127.65150255055235
0.1796875,-131.69503774455976
0.1806640625,-133.6245216539364
0.181640625,-133.46906470664462
0.1826171875,-131.34892158201018
0.18359375,-127.46163811904941
0.1845703125,-122.06563785547755
0.185546875,-115.46226968887667
0.1865234375,-107.97734922039194
0.1875,-99.94318163567449
0.1884765625,-91.68195873300749
0.189453125,-83.49128476127595
0.1904296875,-75.63241495782667
0.19140625,-68.32159838527213
0.1923828125,-61.72471485867778
0.193359375,-55.955196435396466
0.1943359375,-51.0750383909087
0.1953125,-47.09854278522326
0.1962890625,-43.998307717021646
0.197265625,-41.71288298892183
0.1982421875,-40.15546146381641
0.19921875,-39.22296557823032
0.2001953125,-38.80491843615162
0.201171875,-38.791554481912634
0.2021484375,-39.08071979635922
0.203125,-39.58322894742663
0.2041015625,-40.226475427856265
0.205078125,-40.95622703091348
0.2060546875,-41.73666720500083
0.20703125,-42.54886039040659
0.2080078125,-43.387916670563015
0.208984375,-44.25920345840026
0.2099609375,-45.17399593307978
0.2109375,-46.144972109929014
0.2119140625,-47.18194334463451
0.212890625,-48.2881692162495
0.2138671875,-49.45754126389375
0.21484375,-50.67283842921756
0.2158203125,-51.90516469004193
0.216796875,-53.114583122279
0.2177734375,-54.2518673558399
0.21875,-55.261207494482676
0.2197265625,-56.083638582018196
0.220703125,-56.66090993863951
0.2216796875,-56.93948601321343
0.22265625,-56.874365066250824
0.2236328125,-56.43242060863791
0.224609375,-55.59501012881685
0.2255859375,-54.35965289175071
0.2265625,-52.74064901137717
0.2275390625,-50.76859031532121
0.228515625,-48.488794058901796
0.2294921875,-45.95876758868039
0.23046875,-43.2448802781677
0.2314453125,-40.41847384347175
0.232421875,-37.5516799011218
0.2333984375,-34.71323200913953
0.234375,-31.964557463497094
0.2353515625,-29.35641225703369
0.236328125,-26.92628264772768
0.2373046875,-24.696721757217983
0.23828125,-22.67472352581428
0.2392578125,-20.852163896771305
0.240234375,-19.207265353318213
0.2412109375,-17.706970975035006
0.2421875,-16.31005277090312
0.2431640625,-14.970730290267277
0.244140625,-13.642542606744568
0.2451171875,-12.282201784236483
0.24609375,-10.85315969396713
0.2470703125,-9.328642104505471
0.248046875,-7.693942616723055
0.2490234375,-5.947821454686122
0.25,-4.102916654867881
0.2509765625,-2.185143461516531
0.251953125,-0.2321270455240587
0.2529296875,1.7092206953174482
0.25390625,3.585811942705709
0.2548828125,5.341967415415049
0.255859375,6.923229771754687
0.2568359375,8.280147334675334
0.2578125,9.371773228166406
0.2587890625,10.168645931194332
0.259765625,10.655053815736222
0.2607421875,10.830435814550487
0.26171875,10.7098294915653
0.2626953125,10.323342367134718
0.263671875,9.714687955955124
0.2646484375,8.938890144169724
0.265625,8.059314068993762
0.2666015625,7.1442249252025
0.267578125,6.263105246191401
0.2685546875,5.482974332415807
0.26953125,4.864949836942298
0.2705078125,4.461271451552588
0.271484375,4.312971649449984
0.2724609375,4.448331034094683
0.2734375,4.882199352256379
0.2744140625,5.616201598577982
0.275390625,6.639786150107953
0.2763671875,7.932012855651198
0.27734375,9.46392755945085
0.2783203125,11.201329214369569
0.279296875,13.107709360313663
0.2802734375,15.147133143192544
0.28125,17.286837015101355
0.2822265625,19.499340419171023
0.283203125,21.76390566021186
0.2841796875,24.067229305960918
0.28515625,26.403306510141853
0.2861328125,28.772472643128125
0.287109375,31.17969020679724
0.2880859375,33.63220879219768
0.2890625,36.13677760706095
0.2900390625,38.696630150376436
0.291015625,41.30848599081475
0.2919921875,43.95982330385031
0.29296875,46.62666692163538
0.2939453125,49.27211039747683
0.294921875,51.845748374555725
0.2958984375,54.28413985619572
0.296875,56.512357192333575
0.2978515625,58.44660383907473
0.298828125,59.99781077680666
0.2998046875,61.07605160738835
0.30078125,61.59555438936862
0.3017578125,61.48003836232417
0.302734375,60.6680692991201
0.3037109375,59.11811084784638
0.3046875,56.81295228778985
0.3056640625,53.76321586715187
0.306640625,50.009688313537794
0.3076171875,45.6242790486884
0.30859375,40.70947888711654
0.3095703125,35.39627349856272
0.310546875,29.840550992397855
0.3115234375,24.218127653661064
0.3125,18.718595115715452
0.3134765625,13.538261365280626
0.314453125,8.87251281218993
0.3154296875,4.907961887182855
0.31640625,1.8147619919371465
0.3173828125,-0.2605320055199549
0.318359375,-1.2012040213926551
0.3193359375,-0.9254080252631156
0.3203125,0.6102584195968942
0.3212890625,3.4088126193362016
0.322265625,7.432667781459645
0.3232421875,12.60513903417901
0.32421875,18.813589271842382
0.3251953125,25.914047590738324
0.326171875,33.73706108441918
0.3271484375,42.09448276528198
0.328125,50.786857442976476
0.3291015625,59.61104552743571
0.330078125,68.36772281222935
0.3310546875,76.86841201251691
0.33203125,84.94173772596181
0.3330078125,92.43864804755778
0.333984375,99.23640993056969
0.3349609375,105.24125752134873
0.3359375,110.38964868347472
0.3369140625,114.6481602366318
0.337890625,118.01212268395965
0.3388671875,120.50315645276781
0.33984375,122.16582062531218
0.3408203125,123.06361935899932
0.341796875,123.2746292152704
0.3427734375,122.88701202290962
0.34375,121.99466331349265
0.3447265625,120.6932173908982
0.345703125,119.07658919273828
0.3466796875,117.23418339234944
0.34765625,115.24884626894988
0.3486328125,113.19557953815294
0.349609375,111.14098134756014
0.3505859375,109.14333149112059
0.3515625,107.25319855812673
0.3525390625,105.51441851714158
0.353515625,103.96527861949556
0.3544921875,102.63973808277179
0.35546875,101.56852745537108
0.3564453125,100.77999067714593
0.357421875,100.3005656713531
0.3583984375,100.15483824393581
0.359375,100.36514710770972
0.3603515625,100.95076174926402
0.361328125,101.92669638025416
0.3623046875,103.30225934256244
0.36328125,105.07946548363415
0.3642578125,107.25145719302516
0.365234375,109.80108671460951
0.3662109375,112.69980756626067
0.3671875,115.90700675035575
0.3681640625,119.3698830838412
0.369140625,123.02394224989838
0.3701171875,126.79413851006142
0.37109375,130.5966492229443
0.3720703125,134.3412244366682
0.373046875,137.93401287391305
0.3740234375,141.28073044113037
0.375,144.29001039575581
0.3759765625,146.87675737157676
0.376953125,148.96532179237113
0.3779296875,150.49231724418547
0.37890625,151.40892079107064
0.3798828125,151.68252392828518
0.380859375,151.29763811429234
0.3818359375,150.25600129180594
0.3828125,148.5758777963087
0.3837890625,146.29059062917398
0.384765625,143.44636929425823
0.3857421875,140.0996354873359
0.38671875,136.31388046142195
0.3876953125,132.15630993931958
0.388671875,127.69444372412794
0.3896484375,122.9928570620326
0.390625,118.11023948747038
0.3916015625,113.09692517091585
0.392578125,107.99301820192728
0.3935546875,102.82719880792628
0.39453125,97.61625467421081
0.3955078125,92.36533797915479
0.396484375,87.0689062131948
0.3974609375,81.71226593571822
0.3984375,76.27360567575316
0.3994140625,70.72637908272489
0.400390625,65.04188355336458
0.4013671875,59.19187361753085
0.40234375,53.151052440686136
0.4033203125,46.899298328117524
0.404296875,40.42350492371157
0.4052734375,33.71894224901769
0.40625,26.790078762047173
0.4072265625,19.65083998457341
0.408203125,12.32431459487354
0.4091796875,4.841951948889318
0.41015625,-2.757676257715927
0.4111328125,-10.430454715225375
0.412109375,-18.12853259930547
0.4130859375,-25.8022423881214
0.4140625,-33.40201114724102
0.4150390625,-40.8801540755363
0.416015625,-48.19245488120928
0.4169921875,-55.299457740687615
0.41796875,-62.16741955045609
0.4189453125,-68.76889707534384
0.419921875,-75.0829695542409
0.4208984375,-81.09512153001957
0.421875,-86.79683152849461
0.4228515625,-92.18492841845469
0.423828125,-97.26078794151587
0.4248046875,-102.02944652755845
0.42578125,-106.4987081051522
0.4267578125,-110.67831259290757
0.427734375,-114.57922295071465
0.4287109375,-118.21307220123516
0.4296875,-121.59179407854491
0.4306640625,-124.72744239241628
0.431640625,-127.63218629678178
0.4326171875,-130.31845278743756
0.43359375,-132.79917509513004
0.4345703125,-135.08809706078665
0.435546875,-137.20007960551447
0.4365234375,-139.15135620548546
0.4375,-140.95968961800793
0.4384765625,-142.64439142941626
0.439453125,-144.22617843651497
0.4404296875,-145.72685435935634
0.44140625,-147.16882070839662
0.4423828125,-148.57443554848788
0.443359375,-149.96525224994144
0.4443359375,-151.36118106689335
0.4453125,-152.7796237520745
0.4462890625,-154.2346349018178
0.447265625,-155.73616313641543
0.4482421875,-157.2894207088049
0.44921875,-158.89442214023558
0.4501953125,-160.54572171082913
0.451171875,-162.23236700280074
0.4521484375,-163.93807222783138
0.453125,-165.64160183459958
0.4541015625,-167.31734289996277
0.455078125,-168.93603493966577
0.4560546875,-170.46561869935206
0.45703125,-171.87216162886781
0.4580078125,-173.1208172323098
0.458984375,-174.17677816204557
0.4599609375,-175.00618836016858
0.4609375,-175.57698707654305
0.4619140625,-175.8596663807982
0.462890625,-175.82793291501622
0.4638671875,-175.45927315414713
0.46484375,-174.73542851364297
0.4658203125,-173.6427915432599
0.466796875,-172.172736697818
0.4677734375,-170.3218985647091
0.46875,-168.09240702378392
0.4697265625,-165.49208300142098
0.470703125,-162.5345908904048
0.4716796875,-159.2395352062191
0.47265625,-155.63248064500277
0.4736328125,-151.74486747087846
0.474609375,-147.61378912564828
0.4755859375,-143.28159703453247
0.4765625,-138.79529945909505
0.4775390625,-134.2057273187386
0.478515625,-129.56645020859466
0.4794921875,-124.93244004281618
0.48046875,-120.3584971406159
0.4814453125,-115.89747307928728
0.482421875,-111.59834492797974
0.4833984375,-107.50421500251393
0.484375,-103.6503274137757
0.4853515625,-100.06220582611772
0.486328125,-96.75402454969972
0.4873046875,-93.72732620886313
0.48828125,-90.97019297149836
0.4892578125,-88.45696438804742
0.490234375,-86.14857348910617
0.4912109375,-83.99354467878787
0.4921875,-81.92966342949663
0.4931640625,-79.88629056472564
0.494140625,-77.78725514313048
0.4951171875,-75.55422198713967
0.49609375,-73.11039520418093
0.4970703125,-70.38439003762393
0.498046875,-67.31408423175118
0.4990234375,-63.850248607782895
0.5,-59.95975599895347
0.5009765625,-55.62817874001526
0.501953125,-50.86160749512103
0.5029296875,-45.687557582627186
0.50390625,-40.15487162458382
0.5048828125,-34.33257720883261
0.505859375,-28.307712661087677
0.5068359375,-22.18218996106081
0.5078125,-16.06881807860707
0.5087890625,-10.086659328892331
0.509765625,-4.355932711254824
0.5107421875,1.007291037306682
0.51171875,5.8963398572803065
0.5126953125,10.218869411883494
0.513671875,13.901214532438823
0.5146484375,16.89193179692898
0.515625,19.164340147579217
0.5166015625,20.717915907100355
0.517578125,21.578456642118823
0.5185546875,21.796991885798217
0.51953125,21.4474842221739
0.5205078125,20.623427971589773
0.521484375,19.43351109282043
0.5224609375,17.99655560573171
0.5234375,16.43599000879414
0.5244140625,14.874131648896181
0.525390625,13.426566425613432
0.5263671875,12.196907070280673
0.52734375,11.27218994129516
0.5283203125,10.719135100481443
0.529296875,10.581447452653302
0.5302734375,10.878280684164093
0.53125,11.603923859610875
0.5322265625,12.728706364761592
0.533203125,14.20105402107271
0.5341796875,15.95057113828579
0.53515625,17.891973132969465
0.5361328125,19.929654755219406
0.537109375,21.962651863695854
0.5380859375,23.88974125576365
0.5390625,25.61442363937584
0.5400390625,27.049548955347447
0.541015625,28.121369686473283
0.5419921875,28.77284459234447
0.54296875,28.96606004724471
0.5439453125,28.683685998426483
0.544921875,27.929435502735434
0.5458984375,26.72754784253466
0.546875,25.121362558229112
0.5478515625,23.171092913219447
0.548828125,20.95094036988331
0.5498046875,18.545715238293976
0.55078125,16.047142037876718
0.5517578125,13.5500312292709
0.552734375,11.148492394381085
0.5537109375,8.93234878542692
0.5546875,6.983891000716537
0.5556640625,5.375080257213897
0.556640625,4.165281380039339
0.5576171875,3.3995742961880677
0.55859375,3.107662460577272
0.5595703125,3.3033689745765753
0.560546875,3.9846875405861018
0.5615234375,5.134336774667997
0.5625,6.720753265041471
0.5634765625,8.699451149790658
0.564453125,11.014673509191693
0.5654296875,13.601262793929914
0.56640625,16.38668283426366
0.5673828125,19.29313254723395
0.568359375,22.23970007038905
0.5693359375,25.144514565113205
0.5703125,27.92686038530463
0.5712890625,30.509223958357737
0.572265625,32.81924715943249
0.5732421875,34.791562069450826
0.57421875,36.36948102560613
0.5751953125,37.5065133029519
0.576171875,38.1676763664382
0.5771484375,38.330566295306596
0.578125,37.9861496638198
0.5791015625,37.13923877890505
0.580078125,35.808614497285355
0.5810546875,34.026766428195636
0.58203125,31.839229423333197
0.5830078125,29.303507794926855
0.583984375,26.487594255340774
0.5849609375,23.468108388726492
0.5859375,20.328098496614675
0.5869140625,17.1545696623225
0.587890625,14.035818467867713
0.5888671875,11.058669591337512
0.58984375,8.305720222165007
0.5908203125,5.852703772278286
0.591796875,3.766083965373608
0.5927734375,2.100983660227612
0.59375,0.8995397395028722
0.5947265625,0.18975657878225138
0.595703125,-0.015093087319623623
0.5966796875,0.28350166073996697
0.59765625,1.0698210760350322
0.5986328125,2.314970255235714
0.599609375,3.9783944994763027
0.6005859375,6.009766068289605
0.6015625,8.351135177574973
0.6025390625,10.939225976574196
0.603515625,13.707753608678512
0.6044921875,16.589641725359407
0.60546875,19.519030846742464
0.6064453125,22.432986072761754
0.607421875,25.27283666056159
0.6083984375,27.98510826633335
0.609375,30.522039252552208
0.6103515625,32.84170322641034
0.611328125,34.90778869000529
0.6123046875,36.68911125346607
0.61328125,38.15895243903663
0.6142578125,39.29433024380933
0.615234375,40.07530939213069
0.6162109375,40.48445325069987
0.6171875,40.50650496939689
0.6181640625,40.128363460158404
0.619140625,39.33939180086013
0.6201171875,38.13206350825001
0.62109375,36.50291818007996
0.6220703125,34.453764767355395
0.623046875,31.99304074935917
0.6240234375,29.1372111310033
0.625,25.91207453221288
0.6259765625,22.35383628074062
0.626953125,18.509811337866008
0.6279296875,14.438633381714219
0.62890625,10.20987001121825
0.6298828125,5.90297666698993
0.630859375,1.6055616749585448
0.6318359375,-2.589020571583831
0.6328125,-6.584684656756533
0.6337890625,-10.286128190437582
0.634765625,-13.602694154896204
0.6357421875,-16.452396402081412
0.63671875,-18.7658983202729
0.6376953125,-20.490221515209456
0.638671875,-21.591961196135113
0.6396484375,-22.05979841846075
0.640625,-21.90612615387158
0.6416015625,-21.16764524207228
0.642578125,-19.904835737113384
0.6435546875,-18.200266414900394
0.64453125,-16.15576712454091
0.6455078125,-13.88855175182498
0.646484375,-11.526440165852332
0.6474609375,-9.20238204498393
0.6484375,-7.048530611887299
0.6494140625,-5.1901472261151165
0.650390625,-3.739636305037677
0.6513671875,-2.791012798651145
0.65234375,-2.4150909381819976
0.6533203125,-2.6556536426269988
0.654296875,-3.5268181322606305
0.6552734375,-5.011757141614412
0.65625,-7.062869512164806
0.6572265625,-9.60342232166491
0.658203125,-12.530612851429769
0.6591796875,-15.719926532093028
0.66015625,-19.030600399242513
0.6611328125,-22.31194408320466
0.662109375,-25.41022501715784
0.6630859375,-28.175793790712106
0.6640625,-30.4701110198065
0.6650390625,-32.17233950851522
0.666015625,-33.185184705724176
0.6669921875,-33.43970148260725
0.66796875,-32.898834241554496
0.6689453125,-31.559517769355015
0.669921875,-29.453234963332488
0.6708984375,-26.645001100901762
0.671875,-23.230818999764573
0.6728515625,-19.333721541025934
0.673828125,-15.098584093992141
0.6748046875,-10.68594624834414
0.67578125,-6.265127296690758
0.6767578125,-2.0069511117419134
0.677734375,1.9235878552883188
0.6787109375,5.374385305264892
0.6796875,8.212697403148669
0.6806640625,10.330733008420625
0.681640625,11.650122507218688
0.6826171875,12.125070976842236
0.68359375,11.74406453589575
0.6845703125,10.530065025152764
0.685546875,8.539196532785288
0.6865234375,5.857994626514993
0.6875,2.5993525043764265
0.6884765625,-1.1026451115733742
0.689453125,-5.098762015636998
0.6904296875,-9.23124971480543
0.69140625,-13.340787014761199
0.6923828125,-17.273410564518358
0.693359375,-20.88712987551784
0.6943359375,-24.05793660467073
0.6953125,-26.68494665330064
0.6962890625,-28.694453550576164
0.697265625,-30.042720879241305
0.6982421875,-30.717398024893704
0.69921875,-30.73750484739949
0.7001953125,-30.151994395709853
0.701171875,-29.03696579821448
0.7021484375,-27.49165930223737
0.703125,-25.633419544783763
0.7041015625,-23.59185918033619
0.705078125,-21.50249095027253
0.7060546875,-19.500120535292318
0.70703125,-17.71230392299143
0.7080078125,-16.25317093600194
0.708984375,-15.21790092751131
0.7099609375,-14.678107990060836
0.7109375,-14.678352436589549
0.7119140625,-15.233944449741697
0.712890625,-16.330146804265556
0.7138671875,-17.9228190082949
0.71484375,-19.94047796352443
0.7158203125,-22.287683398077004
0.716796875,-24.849593004906097
0.7177734375,-27.497475490792997
0.71875,-30.09492241936134
0.7197265625,-32.50446426121085
0.720703125,-34.594274377286546
0.7216796875,-36.24463805384536
0.72265625,-37.35387277149606
0.7236328125,-37.84341045099134
0.724609375,-37.66179149871246
0.7255859375,-36.78737235703623
0.7265625,-35.229610522526
0.7275390625,-33.02886062062398
0.728515625,-30.254688657369204
0.7294921875,-27.002785282267695
0.73046875,-23.390628973862462
0.7314453125,-19.552112821876413
0.732421875,-15.631400664833203
0.7333984375,-11.776316918290227
0.734375,-8.131597351877545
0.7353515625,-4.832334015146757
0.736328125,-1.9979360737399998
0.7373046875,0.2730999718939152
0.73828125,1.9073608604056291
0.7392578125,2.859434790877398
0.740234375,3.113450746812932
0.7412109375,2.683185261794391
0.7421875,1.610758076961902
0.7431640625,-0.03598867335126936
0.744140625,-2.167265933337533
0.7451171875,-4.6760485812013615
0.74609375,-7.443457821665445
0.7470703125,-10.344521981325043
0.748046875,-13.254010070864918
0.7490234375,-16.052037271304602
0.75,-18.62916307034198
0.7509765625,-20.89073961154578
0.751953125,-22.760317503412235
0.7529296875,-24.181975712947878
0.75390625,-25.12150751538368
0.7548828125,-25.56646175460027
0.755859375,-25.52510377701759
0.7568359375,-25.024419420896685
0.7578125,-24.10733489203496
0.7587890625,-22.82936240676704
0.759765625,-21.254904137438277
0.7607421875,-19.453454204339295
0.76171875,-17.49593018810567
0.7626953125,-15.451342855315733
0.763671875,-13.38397739537675
0.7646484375,-11.351214164539911
0.765625,-9.40206502434992
0.7666015625,-7.576446558399746
0.767578125,-5.9051575651649735
0.7685546875,-4.410478986224394
0.76953125,-3.1072731428540696
0.7705078125,-2.0044285724344437
0.771484375,-1.1064788107838637
0.7724609375,-0.4152192044840144
0.7734375,0.06884469128685938
0.7744140625,0.34536128027347324
0.775390625,0.4134205225684988
0.7763671875,0.2713341482350957
0.77734375,-0.08306920212174061
0.7783203125,-0.6516601129980418
0.779296875,-1.4348084896889803
0.7802734375,-2.4298812172568716
0.78125,-3.629583216415379
0.7822265625,-5.020308758471791
0.783203125,-6.5806780226095025
0.7841796875,-8.280428300494377
0.78515625,-10.079810180259924
0.7861328125,-11.929607643510323
0.787109375,-13.77185935526107
0.7880859375,-15.541309359191159
0.7890625,-17.167562290806373
0.7900390625,-18.57786482199495
0.791015625,-19.70038514888627
0.7919921875,-20.467819524579525
0.79296875,-20.821122289181112
0.7939453125,-20.71313603479418
0.794921875,-20.111893110588966
0.7958984375,-19.003369291810802
0.796875,-17.3934947618477
0.7978515625,-15.309265230865977
0.798828125,-12.798844779746856
0.7998046875,-9.93060882854029
0.80078125,-6.7911368974515245
0.8017578125,-3.4822266239458703
0.802734375,-0.11705886056867992
0.8037109375,3.184305170260693
0.8046875,6.299873033325909
0.8056640625,9.110867369839028
0.806640625,11.50680743746058
0.8076171875,13.39026693341177
0.80859375,14.681067393708313
0.8095703125,15.319698819351347
0.810546875,15.26980344668827
0.8115234375,14.519611840511624
0.8125,13.082279257959344
0.8134765625,10.995130726298969
0.814453125,8.317881659700726
0.8154296875,5.129953494103687
0.81640625,1.5270475790017364
0.8173828125,-2.3828270593762912
0.818359375,-6.4836571477741485
0.8193359375,-10.655839319197582
0.8203125,-14.780492559198299
0.8212890625,-18.743476975822993
0.822265625,-22.43895784736957
0.8232421875,-25.7723926565356
0.82421875,-28.66286232268785
0.8251953125,-31.0447127928872
0.826171875,-32.86851626498442
0.8271484375,-34.101399588523385
0.828125,-34.72681829625241
0.8291015625,-34.74387641381678
0.830078125,-34.16630361603799
0.8310546875,-33.02120224444281
0.83203125,-31.347667836619358
0.8330078125,-29.19536958449675
0.833984375,-26.623153644734398
0.8349609375,-23.697705061291273
0.8359375,-20.492276065582256
0.8369140625,-17.08546258310952
0.837890625,-13.559989541639753
0.8388671875,-10.001451274579917
0.83984375,-6.496947530853939
0.8408203125,-3.133559167286812
0.841796875,0.003379521557962213
0.8427734375,2.8322335679729735
0.84375,5.277238878479232
0.8447265625,7.270853852095448
0.845703125,8.756218487079375
0.8466796875,9.689616220148629
0.84765625,10.042806459597301
0.8486328125,9.805076340442943
0.849609375,8.984851122311332
0.8505859375,7.610705645448011
0.8515625,5.731635234573201
0.8525390625,3.4164733087484582
0.853515625,0.7523835785243373
0.8544921875,-2.1575950240940385
0.85546875,-5.197915623758276
0.8564453125,-8.244707951424374
0.857421875,-11.170626504746417
0.8583984375,-13.850155369661016
0.859375,-16.165119030799772
0.8603515625,-18.010117999532156
0.861328125,-19.2975937352549
0.8623046875,-19.96223105145238
0.86328125,-19.964428735497552
0.8642578125,-19.292609948938264
0.865234375,-17.964201306889827
0.8662109375,-16.02518033850928
0.8671875,-13.548171233828771
0.8681640625,-10.629153522230187
0.869140625,-7.382932228604821
0.8701171875,-3.937595613302774
0.87109375,-0.428252543620699
0.8720703125,3.0096088058323613
0.873046875,6.246769610801554
0.8740234375,9.166558022102564
0.875,11.670393921653702
0.8759765625,13.682278697325234
0.876953125,15.151968805227268
0.8779296875,16.05665045463917
0.87890625,16.40102426327623
0.8798828125,16.2158074781319
0.880859375,15.554761013294714
0.8818359375,14.490442584486534
0.8828125,13.108969324655966
0.8837890625,11.504137805857983
0.884765625,9.77129178504269
0.8857421875,8.001345041434211
0.88671875,6.275356807121339
0.8876953125,4.660020733365423
0.888671875,3.2043670678593728
0.8896484375,1.937895454989271
0.890625,0.8702576944043562
0.8916015625,-0.007497752831897223
0.892578125,-0.720217618555164
0.8935546875,-1.3046749911685274
0.89453125,-1.80463530314742
0.8955078125,-2.2653264113714995
0.896484375,-2.7277315790652685
0.8974609375,-3.223145616252485
0.8984375,-3.7684257162582893
0.8994140625,-4.362329562909353
0.900390625,-4.983266027083325
0.9013671875,-5.588692120133881
0.90234375,-6.116279449723599
0.9033203125,-6.486851247967213
0.904296875,-6.608965064058802
0.9052734375,-6.384894841264915
0.90625,-5.717657619599679
0.9072265625,-4.518642146962618
0.908203125,-2.7153357009447823
0.9091796875,-0.25861622872338275
0.91015625,2.8709176473747338
0.9111328125,6.658065519561124
0.912109375,11.050005462500332
0.9130859375,15.955444207788755
0.9140625,21.246118062697605
0.9150390625,26.760681592876686
0.916015625,32.31087000091276
0.9169921875,37.68967228286622
0.91796875,42.68111523377776
0.9189453125,47.07114224601558
0.919921875,50.658983530849426
0.9208984375,53.26836213812712
0.921875,54.757867123723265
0.9228515625,55.02985318193675
0.923828125,54.03729423981026
0.9248046875,51.7881235682588
0.92578125,48.34672920178959
0.9267578125,43.832433103816044
0.927734375,38.41495621092855
0.9287109375,32.30704884212253
0.9296875,25.754636163226373
0.9306640625,19.024980938398976
0.931640625,12.393491080431334
0.9326171875,6.129889482921965
0.93359375,0.48451229075112584
0.9345703125,-4.324494377519611
0.935546875,-8.122351032246875
0.9365234375,-10.786551977337654
0.9375,-12.252984751612392
0.9384765625,-12.51889995606194
0.939453125,-11.642548784475217
0.9404296875,-9.73949701695321
0.94140625,-6.975816494653167
0.9423828125,-3.5585366340832745
0.943359375,0.27610162184327464
0.9443359375,4.275918588754653
0.9453125,8.186835384841917
0.9462890625,11.766875892293324
0.947265625,14.799330033820148
0.9482421875,17.104328033264814
0.94921875,18.54817067510017
0.9501953125,19.04989482129765
0.951171875,18.584718529926192
0.9521484375,17.184196106797728
0.953125,14.933109077350338
0.9541015625,11.963312569524973
0.955078125,8.444936246380484
0.9560546875,4.575493872317551
0.95703125,0.5675764888478296
0.9580078125,-3.3641162354826903
0.958984375,-7.015618359852506
0.9599609375,-10.205639996451275
0.9609375,-12.785897167383903
0.9619140625,-14.649221068044216
0.962890625,-15.734979414276514
0.9638671875,-16.031511104619508
0.96484375,-15.57546130552183
0.9658203125,-14.448095804481683
0.966796875,-12.768859295947898
0.9677734375,-10.686610764450727
0.96875,-8.36911003347073
0.9697265625,-5.991434290445938
0.970703125,-3.724065676835198
0.9716796875,-1.7214071854935982
0.97265625,-0.11145332001007513
0.9736328125,1.0127336670516096
0.974609375,1.5992067790955309
0.9755859375,1.6405896932505017
0.9765625,1.1745895210046329
0.9775390625,0.2815363244045027
0.978515625,-0.9208954440321676
0.9794921875,-2.285452850493786
0.98046875,-3.6450724417534635
0.9814453125,-4.824040836708607
0.982421875,-5.6498523682417465
0.9833984375,-5.965025140555557
0.984375,-5.638139377319766
0.9853515625,-4.573409618249082
0.986328125,-2.718192001199828
0.9873046875,-0.06795378219413876
0.98828125,3.331613577859574
0.9892578125,7.385483675393156
0.990234375,11.953152129467648
0.9912109375,16.85524941562256
0.9921875,21.88253481723032
0.9931640625,26.8067580240916
0.994140625,31.392768717605573
0.9951171875,35.41118705329124
0.99609375,38.65092303363067
0.9970703125,40.93085139195546
0.998046875,42.11000906709832
0.9990234375,42.095780283641176
1.0,40.84966297008937
1.0009765625,38.39036115512847
1.001953125,34.79411114128634
1.0029296875,30.192314033629707
1.00390625,24.76670296432831
1.0048828125,18.74241015174411
1.005859375,12.37940812914914
1.0068359375,5.962874362185994
1.0078125,-0.2069353802887741
1.0087890625,-5.824723899590754
1.009765625,-10.589562615602448
1.0107421875,-14.21321758372265
1.01171875,-16.427044010068723
1.0126953125,-16.987233269032476
1.013671875,-15.678340017193124
1.0146484375,-12.31516218116355
1.015625,-6.743182681725987
1.0166015625,1.1621014029246628
1.017578125,11.496547858639294
1.0185546875,24.328968714827134
1.01953125,39.7024786154561
1.0205078125,57.63513915247045
1.021484375,78.11951538692982
1.0224609375,101.12086707423401
1.0234375,126.57383382347932
1.0244140625,154.37763158372556
1.025390625,184.38994665621348
1.0263671875,216.41988090882526
1.02734375,250.2204556502181
1.0283203125,285.481309714152
1.029296875,321.8223189304498
1.0302734375,358.78891046795394
1.03125,395.8498402665145
1.0322265625,432.3981417443391
1.033203125,467.7558394001435
1.0341796875,501.18285556222395
1.03515625,531.8903295349054
1.0361328125,559.0583260246199
1.037109375,581.857646860187
1.0380859375,599.4751914250224
1.0390625,611.142052752195
1.0400390625,616.1633039125674
1.041015625,613.9482383877994
1.0419921875,604.0396920732934
1.04296875,586.1410043327282
1.0439453125,560.1391787290457
1.044921875,526.1228844375235
1.0458984375,484.3940964035542
1.046875,435.47240123259985
1.0478515625,380.09128756916255
1.048828125,319.18608149377616
1.0498046875,253.87356320113108
1.05078125,185.42369246591448
1.0517578125,115.22425726829884
1.052734375,44.739622170234725
1.0537109375,-24.53492892339784
1.0546875,-91.12150483255613
1.0556640625,-153.60864382755574
1.056640625,-210.6990534076506
1.0576171875,-261.25403485200377
1.05859375,-304.33267431191877
1.0595703125,-339.2240759688271
1.060546875,-365.47119227809947
1.0615234375,-382.88515903087097
1.0625,-391.5494524177652
1.0634765625,-391.8136318665289
1.064453125,-384.2768944420977
1.0654296875,-369.7621213606248
1.06640625,-349.28152220744755
1.0673828125,-323.99535671575006
1.068359375,-295.16551891857546
1.0693359375,-264.10598910578307
1.0703125,-232.13228458570475
1.0712890625,-200.5120648954749
1.072265625,-170.41897013448892
1.0732421875,-142.89159699220653
1.07421875,-118.79925519837835
1.0751953125,-98.8158113433365
1.076171875,-83.4025347135216
1.0771484375,-72.80043107866561
1.078125,-67.03210695539481
1.0791015625,-65.91277089169957
1.080078125,-69.06957117219864
1.0810546875,-75.96811057562252
1.08203125,-85.94468511031727
1.0830078125,-98.24257800792448
1.083984375,-112.050611358885
1.0849609375,-126.5421196485935
1.0859375,-140.91256131567079
1.0869140625,-154.41412091144926
1.087890625,-166.38586584836617
1.0888671875,-176.27829486032354
1.08984375,-183.67143412691158
1.0908203125,-188.2859836625753
1.091796875,-189.9873723370155
1.0927734375,-188.7829262826173
1.09375,-184.8126751546068
1.0947265625,-178.33459856158652
1.095703125,-169.70533862237403
1.0966796875,-159.35756511817692
1.09765625,-147.77527193777644
1.0986328125,-135.46830621490315
1.099609375,-122.94738728273452
1.1005859375,-110.70076736760662
1.1015625,-99.17352885777268
1.1025390625,-88.75031541357122
1.103515625,-79.74206909297403
1.1044921875,-72.37710682741738
1.10546875,-66.79663068214627
1.1064453125,-63.05454024461481
1.107421875,-61.121213533260715
1.1083984375,-60.89075423448936
1.109375,-62.191074568474576
1.1103515625,-64.79609858395993
1.111328125,-68.43933131149828
1.1123046875,-72.82804335937034
1.11328125,-77.65736416380948
1.1142578125,-82.6236541531997
1.115234375,-87.43662895239191
1.1162109375,-91.82982892769374
1.1171875,-95.56915601199317
1.1181640625,-98.45932826247383
1.119140625,-100.34822321777645
1.1201171875,-101.1291872988164
1.12109375,-100.74147531272247
1.1220703125,-99.16904842289043
1.123046875,-96.43799949316386
1.1240234375,-92.61289204714132
1.125,-87.7922953927472
1.1259765625,-82.10377725629115
1.126953125,-75.69858103992485
1.1279296875,-68.74617258296615
1.12890625,-61.42879621193558
1.1298828125,-53.93613672284865
1.130859375,-46.460146896265336
1.1318359375,-39.19007234487764
1.1328125,-32.30768889085639
1.1337890625,-25.982762913725217
1.134765625,-20.3687515548823
1.1357421875,-15.598775476000567
1.13671875,-11.781919227333553
1.1376953125,-8.999939678283429
1.138671875,-7.304487494698838
1.1396484375,-6.714966434650641
1.140625,-7.217166714463265
1.1416015625,-8.762808999464205
1.142578125,-11.270122761475669
1.1435546875,-14.625556027416849
1.14453125,-18.686673358631207
1.1455078125,-23.286246940673323
1.146484375,-28.237484767471265
1.1474609375,-33.34027386683682
1.1484375,-38.388249827083804
1.1494140625,-43.176441410439125
1.150390625,-47.50918563515881
1.1513671875,-51.207968879030226
1.15234375,-54.1188270906581
1.1533203125,-56.118935845891265
1.154296875,-57.122040269553544
1.1552734375,-57.08241583732684
1.15625,-55.99711240361827
1.1572265625,-53.906312667648606
1.158203125,-50.89172861226141
1.1591796875,-47.073060125168695
1.16015625,-42.60264320802401
1.1611328125,-37.658514725769116
1.162109375,-32.436210428650284
1.1630859375,-27.139687324786788
1.1640625,-21.971815566571646
1.1650390625,-17.124915173925793
1.166015625,-12.771816896822356
1.1669921875,-9.05790365046474
1.16796875,-6.094540202639905
1.1689453125,-3.954226725861663
1.169921875,-2.667720442123404
1.1708984375,-2.2232641179508086
1.171875,-2.5679466866729608
1.1728515625,-3.611106396163947
1.173828125,-5.229577289153305
1.1748046875,-7.2744818869957895
1.17578125,-9.579192319615174
1.1767578125,-11.968023410566586
1.177734375,-14.265187629708588
1.1787109375,-16.30353508335751
1.1796875,-17.932621907148523
1.1806640625,-19.02569603625621
1.181640625,-19.485257331413905
1.1826171875,-19.246935109590865
1.18359375,-18.281524939174634
1.1845703125,-16.59513211784919
1.185546875,-14.227475260836847
1.1865234375,-11.248503717677377
1.1875,-7.753571386801533
1.1884765625,-3.8574820347653445
1.189453125,0.31222635114222674
1.1904296875,4.622360831048545
1.19140625,8.941112907473865
1.1923828125,13.144671717290159
1.193359375,17.123063393015567
1.1943359375,20.78492624226448
1.1953125,24.061003236652077
1.1962890625,26.90621499813095
1.197265625,29.30026287618295
1.1982421875,31.2467976007145
1.19921875,32.771269377357086
1.2001953125,33.91764570733472
1.201171875,34.744239976611865
1.2021484375,35.318934261128355
1.203125,35.71410221636484
1.2041015625,36.00154187151523
1.205078125,36.24771427975533
1.2060546875,36.50955391469753
1.20703125,36.83107297857023
1.2080078125,37.240927573792526
1.208984375,37.75105258944569
1.2099609375,38.35640798237908
1.2109375,39.035815633848955
1.2119140625,39.75380661401379
1.212890625,40.46334651589534
1.2138671875,41.10926392472767
1.21484375,41.632175781887454
1.2158203125,41.97268433423072
1.216796875,42.0756137407375
1.2177734375,41.894059757860795
1.21875,41.39304216806185
1.2197265625,40.552575198819994
1.220703125,39.370004203762775
1.2216796875,37.861495274284685
1.22265625,36.06260607295602
1.2236328125,34.027908974721555
1.224609375,31.829679682440112
1.2255859375,29.55570422262999
1.2265625,27.306293278527757
1.2275390625,25.190624167653166
1.228515625,23.32255668491442
1.2294921875,21.81608906003243
1.23046875,20.78063417598701
1.2314453125,20.316303899484677
1.232421875,20.50939093297913
1.2333984375,21.428233122255204
1.234375,23.119634820762126
1.2353515625,25.606003899796512
1.236328125,28.883341543593456
1.2373046875,32.920195359688414
1.23828125,37.657654958393486
1.2392578125,43.010433531408395
1.240234375,48.86903980804948
1.2412109375,55.103003019851144
1.2421875,61.565070367890385
1.2431640625,68.09625340734232
1.244140625,74.5315584440453
1.2451171875,80.70619836290211
1.24609375,86.46205128209637
1.2470703125,91.65410706394385
1.248046875,96.1566279067327
1.2490234375,99.86874563996342
1.25,102.71922718612296
1.2509765625,104.67016165511883
1.251953125,105.71935776665796
1.2529296875,105.90128808813496
1.25390625,105.28647550148185
1.2548828125,103.97928517171452
1.255859375,102.11415918259978
1.2568359375,99.85040744201888
1.2578125,97.36574352187873
1.2587890625,94.84882365207305
1.259765625,92.49110701923807
1.2607421875,90.47840198881296
1.26171875,88.98249256079288
1.2626953125,88.15324975685829
1.263671875,88.11162214977736
1.2646484375,88.9438679600375
1.265625,90.69733885547292
1.2666015625,93.37805482349812
1.267578125,96.95022346310463
1.2685546875,101.33776000426703
1.26953125,106.42776138915359
1.2705078125,112.07578445971394
1.271484375,118.11268053671216
1.2724609375,124.3526521747999
1.2734375,130.60212787536776
1.2744140625,136.66900145536667
1.275390625,142.37175791733864
1.2763671875,147.5480089917152
1.27734375,152.061989467213
1.2783203125,155.81061885532458
1.279296875,158.72780916361242
1.2802734375,160.78679447593865
1.28125,162.00036637414658
1.2822265625,162.41901479694184
1.283203125,162.12709002117126
1.2841796875,161.2372112583589
1.28515625,159.88324437800318
1.2861328125,158.21224971418192
1.287109375,156.37585608542864
1.2880859375,154.52154574601533
1.2890625,152.78433529143913
1.2900390625,151.27930959712856
1.291015625,150.09541142870384
1.2919921875,149.2908118349361
1.29296875,148.89009062973457
1.2939453125,148.88334814330352
1.294921875,149.22725564182116
1.2958984375,149.8479394052985
1.296875,150.64548927413497
1.2978515625,151.4997928390666
1.298828125,152.27732668323733
1.2998046875,152.8384902076578
1.30078125,153.04504802938578
1.3017578125,152.76725446473958
1.302734375,151.8902671820791
1.3037109375,150.31951402729814
1.3046875,147.98475313145428
1.3056640625,144.8426563262836
1.306640625,140.87784346071803
1.3076171875,136.1023938335903
1.30859375,130.55395412441058
1.3095703125,124.29264387465074
1.310546875,117.39702461018302
1.3115234375,109.9594432013705
1.3125,102.08108162425329
1.3134765625,93.86704313640995
1.314453125,85.42177992527722
1.3154296875,76.84512200497859
1.31640625,68.229105424251
1.3173828125,59.65572468355994
1.318359375,51.195655372913556
1.3193359375,42.90791446492264
1.3203125,34.84035335098804
1.3212890625,27.03081795118165
1.322265625,19.508765483245472
1.3232421875,12.297101903745576
1.32421875,5.413999305634943
1.3251953125,-1.125531254588067
1.326171875,-7.3085004750195095
1.3271484375,-13.123372159357839
1.328125,-18.560138375299367
1.3291015625,-23.611040913897867
1.330078125,-28.271869906326977
1.3310546875,-32.54370380446996
1.33203125,-36.43489888107983
1.3330078125,-39.963095827695845
1.333984375,-43.15698965917651
1.3349609375,-46.05760929977278
1.3359375,-48.718875605567945
1.3369140625,-51.207250185778115
1.337890625,-53.60034953707708
1.3388671875,-55.98447554790738
1.33984375,-58.45109898608091
1.3408203125,-61.092420918972444
1.341796875,-63.996221500113876
1.3427734375,-67.24027961832512
1.34375,-70.88670452110455
1.3447265625,-74.97655666679296
1.345703125,-79.52514609493709
1.3466796875,-84.51838056299428
1.34765625,-89.91049250257296
1.3486328125,-95.62340531824877
1.349609375,-101.54790936710849
1.3505859375,-107.54671142392397
1.3515625,-113.45930516720342
1.3525390625,-119.10849171070247
1.353515625,-124.30826632824115
1.3544921875,-128.8726880155415
1.35546875,-132.6252694479768
1.3564453125,-135.40837211290813
1.357421875,-137.09206920519486
1.3583984375,-137.58194963804502
1.359375,-136.82538048278062
1.3603515625,-134.8158203905164
1.361328125,-131.59487904449972
1.3623046875,-127.25194157528517
1.36328125,-121.92131477085505
1.3642578125,-115.77699541777578
1.365234375,-109.0253013121175
1.3662109375,-101.89573355073436
1.3671875,-94.63054647430708
1.3681640625,-87.4735821171543
1.369140625,-80.65897390704913
1.3701171875,-74.40033637253559
1.37109375,-68.88103272559292
1.3720703125,-64.2460517052071
1.373046875,-60.595932576295624
1.3740234375,-57.98305830196196
1.375,-56.41049896628587
1.3759765625,-55.83343906306241
1.376953125,-56.163072491135544
1.3779296875,-57.272707298095746
1.37890625,-59.00569715340955
1.3798828125,-61.18471587182577
1.380859375,-63.62182113325128
1.3818359375,-66.12871794568242
1.3828125,-68.52663324688947
1.3837890625,-70.6552498489438
1.384765625,-72.3802179088706
1.3857421875,-73.59886037631506
1.38671875,-74.24380875902497
1.3876953125,-74.28443908009177
1.388671875,-73.72611632877174
1.3896484375,-72.60739005923588
1.390625,-70.99540551926175
1.3916015625,-68.97989618695264
1.392578125,-66.66619871306754
1.3935546875,-64.16777570254371
1.39453125,-61.59874332802642
1.3955078125,-59.066879486190665
1.396484375,-56.667536302422874
1.3974609375,-54.478802518711454
1.3984375,-52.55816258972184
1.3994140625,-50.940787378910706
1.400390625,-49.6394741614988
1.4013671875,-48.64613936384892
1.40234375,-47.93466391449733
1.4033203125,-47.464805147685276
1.404296875,-47.186826435995194
1.4052734375,-47.04645993990456
1.40625,-46.98981089195456
1.4072265625,-46.967833446605276
1.408203125,-46.94005605997939
1.4091796875,-46.87730451797295
1.41015625,-46.76325747039755
1.4111328125,-46.594765928400584
1.412109375,-46.38096730115592
1.4130859375,-46.141318760603205
1.4140625,-45.90275709542547
1.4150390625,-45.69625673877625
1.416015625,-45.55309973961882
1.4169921875,-45.5011882009883
1.41796875,-45.561720151411386
1.4189453125,-45.74651495397035
1.419921875,-46.05621707175872
1.4208984375,-46.479531867687804
1.421875,-46.993560005863635
1.4228515625,-47.56520473781324
1.423828125,-48.15353607174452
1.4248046875,-48.71291458200282
1.42578125,-49.19661179536997
1.4267578125,-49.56061893392485
1.427734375,-49.76731500528715
1.4287109375,-49.78867070033105
1.4296875,-49.60869620607248
1.4306640625,-49.224896796174164
1.431640625,-48.648576009697194
1.4326171875,-47.90391686935064
1.43359375,-47.02587023153037
1.4345703125,-46.05697858754183
1.435546875,-45.04335585474267
1.4365234375,-44.03012168217064
1.4375,-43.05664623249985
1.4384765625,-42.151993345820664
1.439453125,-41.330953285890345
1.4404296875,-40.59102976403644
1.44140625,-39.91069065038223
1.4423828125,-39.24911085182318
1.443359375,-38.547534339593824
1.4443359375,-37.73226694764991
1.4453125,-36.71919020975955
1.4462890625,-35.41956769385408
1.447265625,-33.746807599721194
1.4482421875,-31.623756864003646
1.44921875,-28.990039585271436
1.4501953125,-25.808921545332986
1.451171875,-22.073186235153212
1.4521484375,-17.809547069154
1.453125,-13.081193939436128
1.4541015625,-7.988176109056523
1.455078125,-2.665451680570532
1.4560546875,2.721421293981015
1.45703125,7.982824681326768
1.4580078125,12.913573793693166
1.458984375,17.302949630571675
1.4599609375,20.94573895776988
1.4609375,23.653665282490035
1.4619140625,25.2665439867324
1.462890625,25.66248555087322
1.4638671875,24.76650358364633
1.46484375,22.55695823962811
1.4658203125,19.06937685366473
1.466796875,14.397336098493033
1.4677734375,8.690255397444004
1.46875,2.148129844255535
1.4697265625,-4.986588373365501
1.470703125,-12.439579227690771
1.4716796875,-19.917181838486325
1.47265625,-27.12020347043516
1.4736328125,-33.75826933003526
1.474609375,-39.56392946362605
1.4755859375,-44.305742635415214
1.4765625,-47.799606966201026
1.4775390625,-49.91770070185629
1.478515625,-50.5945284056658
1.4794921875,-49.8297303887634
1.48046875,-47.6874966248533
1.4814453125,-44.29261974697406
1.482421875,-39.82341335857059
1.4833984375,-34.501900256899894
1.484375,-28.581829535452105
1.4853515625,-22.3352026280529
1.486328125,-16.03806899763407
1.4873046875,-9.956387633281874
1.48828125,-4.332738899582582
1.4892578125,0.6253864490640307
1.490234375,4.755094314360841
1.4912109375,7.9448995642078195
1.4921875,10.13851619664766
1.4931640625,11.335478605827326
1.494140625,11.588634019676359
1.4951171875,10.998727791411172
1.49609375,9.706468699317767
1.4970703125,7.882600940809852
1.498046875,5.716615007411228
1.4990234375,3.4047952265779435
1.5,1.1383241299378548
1.5009765625,-0.9078576555980374
1.501953125,-2.5848004660865946
1.5029296875,-3.777368288170707
1.50390625,-4.409730100794992
1.5048828125,-4.448266737095749
1.505859375,-3.901803648233878
1.5068359375,-2.8192447626011203
1.5078125,-1.2848385092095838
1.5087890625,0.588555459000884
1.509765625,2.6677193589466737
1.5107421875,4.808292546808069
1.51171875,6.864350000128469
1.5126953125,8.697742208637242
1.513671875,10.186629448125737
1.5146484375,11.232712601606796
1.515625,11.76676095056902
1.5166015625,11.752157626421475
1.517578125,11.18631739571619
1.5185546875,10.099970187437593
1.51953125,8.554438219403707
1.5205078125,6.637156227433067
1.521484375,4.455785681760972
1.5224609375,2.1313490508775303
1.5234375,-0.20914491906866817
1.5244140625,-2.440101268894631
1.525390625,-4.444299950547853
1.5263671875,-6.119002788056617
1.52734375,-7.380865598724043
1.5283203125,-8.169409018685446
1.529296875,-8.448908519884727
1.5302734375,-8.208676141956195
1.53125,-7.461815846310141
1.5322265625,-6.242633759832363
1.533203125,-4.6029674302602785
1.5341796875,-2.6077593767544416
1.53515625,-0.3302361199331389
1.5361328125,2.1529372173767234
1.537109375,4.766174565417785
1.5380859375,7.438849359794373
1.5390625,10.108292123864523
1.5400390625,12.721739285988711
1.541015625,15.237156961805326
1.5419921875,17.622956212881483
1.54296875,19.85670542674867
1.5439453125,21.92302451839386
1.544921875,23.810909006025103
1.5458984375,25.51077522340548
1.546875,27.01153805238461
1.5478515625,28.298028292970734
1.548828125,29.349028596812364
1.5498046875,30.136156910292726
1.55078125,30.62375828257189
1.5517578125,30.769884624250665
1.552734375,30.528353409765316
1.5537109375,29.851786751890746
1.5546875,28.695448182704503
1.5556640625,27.0216219006599
1.556640625,24.804223474779796
1.5576171875,22.033296182655718
1.55859375,18.719036029505023
1.5595703125,14.895002196405443
1.560546875,10.620207667839491
1.5615234375,5.979844949681876
1.5625,1.084480454483326
1.5634765625,-3.932356561323371
1.564453125,-8.918164499259397
1.5654296875,-13.706911741273693
1.56640625,-18.125706575175936
1.5673828125,-22.002385110987348
1.568359375,-25.173638914991542
1.5693359375,-27.493256647354595
1.5703125,-28.84003096590916
1.5712890625,-29.12488503981625
1.572265625,-28.29680229222602
1.5732421875,-26.34719695413235
1.57421875,-23.312438674854636
1.5751953125,-19.274337498699335
1.576171875,-14.358500670675584
1.5771484375,-8.730583972869708
1.578125,-2.5905712812531454
1.5791015625,3.834679490761484
1.580078125,10.30029377945529
1.5810546875,16.553236105548866
1.58203125,22.342705909048675
1.5830078125,27.430586151877105
1.583984375,31.60145377376508
1.5849609375,34.6716829127151
1.5859375,36.49721748542329
1.5869140625,36.97965647568001
1.587890625,36.07037916638938
1.5888671875,33.772533847373815
1.58984375,30.14081693238263
1.5908203125,25.279074406227085
1.591796875,19.335858657411933
1.5927734375,12.498165993718787
1.59375,4.983659079123524
1.5947265625,-2.968259341849988
1.595703125,-11.106112268990803
1.5966796875,-19.176322570217945
1.59765625,-26.933063035873428
1.5986328125,-34.147569003560996
1.599609375,-40.61653750546663
1.6005859375,-46.16928984659572
1.6015625,-50.673439815043494
1.6025390625,-54.03888363638552
1.603515625,-56.22000637505546
1.6044921875,-57.21607885129185
1.60546875,-57.0698955924611
1.6064453125,-55.864774587021174
1.607421875,-53.72010089637416
1.6083984375,-50.785646393476554
1.609375,-47.23493559425254
1.6103515625,-43.257951994233174
1.611328125,-39.0534904464444
1.6123046875,-34.821459444484525
1.61328125,-30.755423752132682
1.6142578125,-27.035654104092597
1.615234375,-23.822918423453604
1.6162109375,-21.25321008648272
1.6171875,-19.433565186932064
1.6181640625,-18.439074463868145
1.619140625,-18.311148395768694
1.6201171875,-19.057047599658056
1.62109375,-20.650646558644
1.6220703125,-23.034358075148162
1.623046875,-26.12210969945866
1.6240234375,-29.80323248137152
1.625,-33.94709731892096
1.6259765625,-38.40831529073464
1.626953125,-43.03230590001543
1.6279296875,-47.66103118537149
1.62890625,-52.13869412199539
1.6298828125,-56.31720646801883
1.630859375,-60.06124390529428
1.6318359375,-63.25272456127811
1.6328125,-65.79457021965223
1.6337890625,-67.61363704640961
1.634765625,-68.66273363093458
1.6357421875,-68.92167760491543
1.63671875,-68.39737695389043
1.6376953125,-67.12295717760877
1.638671875,-65.15598942806666
1.6396484375,-62.57590636206301
1.640625,-59.48072045837289
1.6416015625,-55.98318280161505
1.642578125,-52.206537858988305
1.6435546875,-48.28004079776504
1.64453125,-44.334407946600095
1.6455078125,-40.49736792507417
1.646484375,-36.88947095327684
1.6474609375,-33.62029745004055
1.6484375,-30.785185110260148
1.6494140625,-28.462567404453846
1.650390625,-26.71198726331742
1.6513671875,-25.572819177249826
1.65234375,-25.063702665476093
1.6533203125,-25.182661650468397
1.654296875,-25.907859149848704
1.6552734375,-27.198916077460872
1.65625,-28.998707726975738
1.6572265625,-31.235542204440577
1.658203125,-33.825621789086966
1.6591796875,-36.67569061527363
1.66015625,-39.685779477190664
1.6611328125,-42.75196991572449
1.662109375,-45.76911374170427
1.6630859375,-48.63345932527922
1.6640625,-51.245150830017145
1.6650390625,-53.510579670982025
1.666015625,-55.34457760632245
1.6669921875,-56.67244711415341
1.66796875,-57.431826533036165
1.6689453125,-57.57438477127745
1.669921875,-57.06733360257336
1.6708984375,-55.894735493876865
1.671875,-54.0585727848876
1.6728515625,-51.57953139595276
1.673828125,-48.49744081019514
1.6748046875,-44.87130362100282
1.67578125,-40.778844147402026
1.6767578125,-36.315507899150234
1.677734375,-31.592853050674808
1.6787109375,-26.73629206198714
1.6796875,-21.882166068674124
1.6806640625,-17.174165915790436
1.681640625,-12.759150349133687
1.6826171875,-8.78245192511286
1.68359375,-5.3828022000141384
1.6845703125,-2.687046908169478
1.685546875,-0.8048561451035534
1.6865234375,0.1763388728795343
1.6875,0.195934800641304
1.6884765625,-0.7759802099971116
1.689453125,-2.7357285941204426
1.6904296875,-5.644325776798105
1.69140625,-9.427116998770941
1.6923828125,-13.974888556564302
1.693359375,-19.146507873636715
1.6943359375,-24.77307281633319
1.6953125,-30.663472029428362
1.6962890625,-36.61117913936022
1.697265625,-42.40202910754779
1.6982421875,-47.822659494379664
1.69921875,-52.66924732141329
1.7001953125,-56.756137431325755
1.701171875,-59.923943745476315
1.7021484375,-62.046712530892414
1.703125,-63.03776739455017
1.7041015625,-62.85390856106996
1.705078125,-61.49771203331582
1.7060546875,-59.01776414734316
1.70703125,-55.506769345560095
1.7080078125,-51.09757830869895
1.708984375,-45.95729388642378
1.7099609375,-40.27971725845745
1.7109375,-34.27649024641834
1.7119140625,-28.167365963552815
1.712890625,-22.170094162853296
1.7138671875,-16.490436021835684
1.71484375,-11.312823393559588
1.7158203125,-6.7921490909825355
1.716796875,-3.0471185657313873
1.7177734375,-0.15551206816067198
1.71875,1.8483957270188396
1.7197265625,2.974129025873847
1.720703125,3.2730136210111205
1.7216796875,2.8340130225520013
1.72265625,1.7776436258530717
1.7236328125,0.24832295543465047
1.724609375,-1.5944062579896616
1.7255859375,-3.5852698402904704
1.7265625,-5.562733052869387
1.7275390625,-7.378004963630258
1.728515625,-8.903061730824907
1.7294921875,-10.037233745011706
1.73046875,-10.711988256011296
1.7314453125,-10.893647941142602
1.732421875,-10.583910451103728
1.7333984375,-9.8181668818744
1.734375,-8.661750368260984
1.7353515625,-7.204371492358909
1.736328125,-5.553107259755214
1.7373046875,-3.824398220259682
1.73828125,-2.1355683991185748
1.7392578125,-0.5964112244429529
1.740234375,0.6986203362896098
1.7412109375,1.6771195571916186
1.7421875,2.2938973082445884
1.7431640625,2.5342852241212426
1.744140625,2.4153547490833667
1.7451171875,1.9849679855260143
1.74609375,1.318714082618708
1.7470703125,0.5149201103303558
1.748046875,-0.31195045964685997
1.7490234375,-1.0390932170756433
1.75,-1.543854004905841
1.7509765625,-1.712368579135625
1.751953125,-1.4477884596780681
1.7529296875,-0.6775509185849979
1.75390625,0.6407944462468741
1.7548828125,2.5156044287392842
1.755859375,4.919296305950831
1.7568359375,7.788796191680674
1.7578125,11.02829792386258
1.7587890625,14.514203460704492
1.759765625,18.101976774418173
1.7607421875,21.63451921497005
1.76171875,24.95157308800795
1.7626953125,27.899588221003583
1.763671875,30.341448300348038
1.7646484375,32.16545242349183
1.765625,33.29298306125677
1.7666015625,33.68436264244057
1.767578125,33.34250324911346
1.7685546875,32.3140815157274
1.76953125,30.688116220275774
1.7705078125,28.59198058708925
1.771484375,26.18503570753679
1.7724609375,23.650216402361377
1.7734375,21.1840274849603
1.7744140625,18.98550898851477
1.775390625,17.244797257821432
1.7763671875,16.13194057410152
1.77734375,15.786621041238902
1.7783203125,16.309388995333784
1.779296875,17.75493470773297
1.7802734375,20.127809284111226
1.78125,23.380868972571154
1.7822265625,27.41656262435019
1.783203125,32.091019855595846
1.7841796875,37.220737073836865
1.78515625,42.591509378377786
1.7861328125,47.96912719257424
1.787109375,53.11125489646228
1.7880859375,57.779840648559244
1.7890625,61.75337594036118
1.7900390625,64.83833194009758
1.791015625,66.87914675372947
1.7919921875,67.76622047883365
1.79296875,67.44148838738978
1.7939453125,65.90127999447367
1.794921875,63.19632501634297
1.7958984375,59.42892728817542
1.796875,54.74748525180212
1.7978515625,49.33868350427141
1.798828125,43.417805763659594
1.7998046875,37.21771834521656
1.80078125,30.97713941779248
1.8017578125,24.928839469285133
1.802734375,19.28841125340827
1.8037109375,14.244203961423217
1.8046875,9.948939516993164
1.8056640625,6.513423749773366
1.806640625,4.002638371361242
1.8076171875,2.4343589627224422
1.80859375,1.7802981073927606
1.8095703125,1.9696300678349192
1.810546875,2.8946223635115813
1.8115234375,4.417987788664503
1.8125,6.381484041208114
1.8134765625,8.615231804226395
1.814453125,10.947198534597348
1.8154296875,13.212305012014099
1.81640625,15.260653526200826
1.8173828125,16.96444711597744
1.818359375,18.22326354066749
1.8193359375,18.967459315029448
1.8203125,19.159600896921813
1.8212890625,18.79394422676224
1.822265625,17.894102542189042
1.8232421875,16.509148486540916
1.82421875,14.708483701554993
1.8251953125,12.575872348122408
1.826171875,10.203070974571482
1.8271484375,7.683494245675561
1.828125,5.106334558674674
1.8291015625,2.5515055802850917
1.830078125,0.08570899574765489
1.8310546875,-2.240164608217637
1.83203125,-4.392189631592844
1.8330078125,-6.3531075213009895
1.833984375,-8.120672590431056
1.8349609375,-9.704830365230173
1.8359375,-11.12399539971206
1.8369140625,-12.400753729993008
1.837890625,-13.557349893644446
1.8388671875,-14.611327757873562
1.83984375,-15.571678037086029
1.8408203125,-16.435804777015655
1.841796875,-17.187561267996127
1.8427734375,-17.796527216330844
1.84375,-18.218609008253114
1.8447265625,-18.397949696647846
1.845703125,-18.270041363083973
1.8466796875,-17.76584605113016
1.84765625,-16.816658273842275
1.8486328125,-15.359386972607394
1.849609375,-13.341901328605632
1.8505859375,-10.728075098123362
1.8515625,-7.502178686118097
1.8525390625,-3.672305875479284
1.853515625,0.7274196269291255
1.8544921875,5.636037865871319
1.85546875,10.966440256227049
1.8564453125,16.60755281118419
1.857421875,22.427924954002712
1.8583984375,28.280548598339948
1.859375,34.00865883680773
1.8603515625,39.45221088031765
1.861328125,44.45469136545393
1.8623046875,48.86990792143642
1.86328125,52.56840955249789
1.8642578125,55.443220959872335
1.865234375,57.41462390728907
1.8662109375,58.43378432801174
1.8671875,58.48510020133342
1.8681640625,57.58722672507637
1.869140625,55.792816068170836
1.8701171875,53.18708320677871
1.87109375,49.88537173007651
1.8720703125,46.02993964745971
1.873046875,41.78621194239635
1.8740234375,37.33875217622394
1.875,32.88718970423326
1.8759765625,28.64230352751972
1.876953125,24.822411509584324
1.8779296875,21.65014903573631
1.87890625,19.34964963866668
1.8798828125,18.144067807696107
1.880859375,18.253317524630468
1.8818359375,19.89184521064603
1.8828125,23.26621823354843
1.8837890625,28.572294310880526
1.884765625,35.9917459769134
1.8857421875,45.68774894807768
1.88671875,57.799702982728014
1.8876953125,72.43693599586754
1.888671875,89.67144221226825
1.8896484375,109.52981682319808
1.890625,131.98466547364478
1.8916015625,156.94587860914743
1.892578125,184.25225959437986
1.8935546875,213.66407315718905
1.89453125,244.85712951250258
1.8955078125,277.419033249308
1.896484375,310.8482003384409
1.8974609375,344.5561793160493
1.8984375,377.8737041952821
1.8994140625,410.0607599579456
1.900390625,440.32076218470144
1.9013671875,467.8187484625057
1.90234375,491.70326066190273
1.9033203125,511.1313755239597
1.904296875,525.2961286546174
1.9052734375,533.455386645577
1.90625,534.9610657210051
1.9072265625,529.2874839327881
1.908203125,516.0575763949427
1.9091796875,495.0657057475038
1.91015625,466.295866333952
1.9111328125,429.9342104986433
1.912109375,386.37501553099486
1.9130859375,336.21945327933975
1.9140625,280.26681135063683
1.9150390625,219.49813242008955
1.916015625,155.0525717328518
1.9169921875,88.19710624705647
1.91796875,20.2905453975779
1.9189453125,-47.256923124937366
1.919921875,-113.02718393488107
1.9208984375,-175.63899805521092
1.921875,-233.7924148549307
1.9228515625,-286.31102114362324
1.923828125,-332.1803126087211
1.9248046875,-370.5806082940676
1.92578125,-400.9131387676188
1.9267578125,-422.8182139528547
1.927734375,-436.184704864523
1.9287109375,-441.1504394479323
1.9296875,-438.09349914916174
1.9306640625,-427.6147913559694
1.931640625,-410.5126449152999
1.9326171875,-387.75051378066627
1.93359375,-360.41916142336356
1.9345703125,-329.69492242193417
1.935546875,-296.79578732659127
1.9365234375,-262.9371259229394
1.9375,-229.2888498848341
1.9384765625,-196.9357201693199
1.939453125,-166.84233304295975
1.9404296875,-139.824080713034
1.94140625,-116.52509069997295
1.9423828125,-97.4038173169975
1.943359375,-82.72660556885724
1.9443359375,-72.5691898383304
1.9453125,-66.82574414312418
1.9462890625,-65.22478371707327
1.947265625,-67.35094352935825
1.9482421875,-72.67143989441855
1.94921875,-80.56586521471738
1.9501953125,-90.35787836675972
1.951171875,-101.34733588292426
1.9521484375,-112.84145990284996
1.953125,-124.18375251565341
1.9541015625,-134.77953427921744
1.955078125,-144.11719667178426
1.9560546875,-151.78450154440097
1.95703125,-157.4795218369957
1.9580078125,-161.01608318116686
1.958984375,-162.32382230805385
1.9599609375,-161.4432133708626
1.9609375,-158.51611707909308
1.9619140625,-153.77257186350704
1.962890625,-147.51466561326632
1.9638671875,-140.09839799985383
1.96484375,-131.91446687529006
1.9658203125,-123.36889005666465
1.966796875,-114.86431058703263
1.9677734375,-106.78273571151459
1.96875,-99.47033507407404
1.9697265625,-93.22478060007377
1.970703125,-88.28545797786373
1.9716796875,-84.8267261563449
1.97265625,-82.95425462609099
1.9736328125,-82.70433513813732
1.974609375,-84.0459501789973
1.9755859375,-86.88528861633536
1.9765625,-91.07233142509034
1.9775390625,-96.40908765450219
1.978515625,-102.65904168159001
1.9794921875,-109.55737494397404
1.98046875,-116.82154546100806
1.9814453125,-124.16184261403241
1.982421875,-131.2915786891518
1.9833984375,-137.93662849072277
1.984375,-143.8440801537735
1.9853515625,-148.78981099568873
1.986328125,-152.5848494651187
1.9873046875,-155.0804264682669
1.98828125,-156.17165591082548
1.9892578125,-155.79981534166942
1.990234375,-153.95322391670186
1.9912109375,-150.66673777985585
1.9921875,-146.01990391820115
1.9931640625,-140.13383411798182
1.994140625,-133.16688218300717
1.9951171875,-125.30923101245013
1.99609375,-116.77652188420814
1.9970703125,-107.80268611664407
1.998046875,-98.63216830549516
1.9990234375,-89.51175904290149
2.0,-80.68228142295666
2.0009765625,-72.37039736383022
2.001953125,-64.78081434739877
2.0029296875,-58.08917820935697
2.00390625,-52.435931040527755
2.0048828125,-47.921393605051016
2.005859375,-44.602298196041275
2.0068359375,-42.48995069018948
2.0078125,-41.550140861435615
2.0087890625,-41.70484987423743
2.009765625,-42.835726309334625
2.0107421875,-44.78922086459502
2.01171875,-47.38318933868553
2.0126953125,-50.41469826951252
2.013671875,-53.66870227261186
2.0146484375,-56.9272109879121
2.015625,-59.978530260987824
2.0166015625,-62.62614950363366
2.017578125,-64.6968567312692
2.0185546875,-66.04769488348492
2.01953125,-66.57142668491645
2.0205078125,-66.20024809864941
2.021484375,-64.90757874255334
2.0224609375,-62.70785678390766
2.0234375,-59.65437031625015
2.0244140625,-55.83526109473646
2.025390625,-51.36793371377863
2.0263671875,-46.39218806162939
2.02734375,-41.06246005492722
2.0283203125,-35.53960109011805
2.029296875,-29.982647470615465
2.0302734375,-24.54102585996507
2.03125,-19.34760974704932
2.0322265625,-14.512986742676699
2.033203125,-10.121220531932705
2.0341796875,-6.227299039598752
2.03515625,-2.8563574611333316
2.0361328125,-0.004657549320732498
2.037109375,2.357800460536851
2.0380859375,4.283253183282106
2.0390625,5.8410381770629884
2.0400390625,7.1117101967767145
2.041015625,8.180811411458155
2.0419921875,9.13270998038875
2.04296875,10.044907511640066
2.0439453125,10.983176598856536
2.044921875,11.997827505233825
2.0458984375,13.121322238465611
2.046875,14.367360046244256
2.0478515625,15.731456918540912
2.048828125,17.192939641908378
2.0498046875,18.718178966299
2.05078125,20.26480278287385
2.0517578125,21.786564333453956
2.052734375,23.238496675335238
2.0537109375,24.581965781123827
2.0546875,25.78924199002478
2.0556640625,26.847242578711477
2.056640625,27.76015483174969
2.0576171875,28.550725467972253
2.05859375,29.260093614527463
2.0595703125,29.946144737551492
2.060546875,30.680465442259134
2.0615234375,31.544077110086338
2.0625,32.62221344512604
2.0634765625,33.99847736985764
2.064453125,35.74876160582104
2.0654296875,37.9353413367852
2.06640625,40.60154481706489
2.0673828125,43.76737860215048
2.068359375,47.42642990360551
2.0693359375,51.54429269238885
2.0703125,56.05867128174149
2.0712890625,60.881211017288884
2.072265625,65.90099693996498
2.0732421875,70.98955474672263
2.07421875,76.00709082399841
2.0751953125,80.80962580481419
2.076171875,85.25661430992024
2.0771484375,89.21860630407664
2.078125,92.5844953420998
2.0791015625,95.26791672463165
2.080078125,97.21240331200188
2.0810546875,98.39497587851136
2.08203125,98.82793430595824
2.0830078125,98.55872025296983
2.083984375,97.66783489136802
2.0849609375,96.26491003997295
2.0859375,94.48314058969088
2.0869140625,92.47238388267802
2.087890625,90.39131173970131
2.0888671875,88.39905831165503
2.08984375,86.64683838331678
2.0908203125,85.27001429280705
2.091796875,84.38106505161117
2.0927734375,84.06386003045759
2.09375,84.36956479078532
2.0947265625,85.31441275513119
2.095703125,86.87946898655946
2.0966796875,89.01239774921261
2.09765625,91.6311304632941
2.0986328125,94.6292218704396
2.099609375,97.88258597302512
2.1005859375,101.25722510276636
2.1015625,104.61750971409438
2.1025390625,107.83453622352849
2.103515625,110.79408696126603
2.1044921875,113.40374001985595
2.10546875,115.59872586606163
2.1064453125,117.34619898471725
2.107421875,118.64768226655868
2.1083984375,119.53954408125603
2.109375,120.09147710641702
2.1103515625,120.4030578132292
2.111328125,120.59856992740121
2.1123046875,120.8203684868798
2.11328125,121.2211383337826
2.1142578125,121.95545805108289
2.115234375,123.17111471677187
2.1162109375,125.00062497222271
2.1171875,127.55340372170232
2.1181640625,130.90898458954226
2.119140625,135.11163855518708
2.1201171875,140.1666625320978
2.12109375,146.03852242578117
2.1220703125,152.65094031926483
2.123046875,159.8889180642967
2.1240234375,167.60259483555683
2.125,175.61274893640058
2.1259765625,183.71767856332997
2.126953125,191.70113577946688
2.1279296875,199.34094513018994
2.12890625,206.41791462554679
2.1298828125,212.724642624355
2.130859375,218.07383886244511
2.1318359375,222.30580990400557
2.1328125,225.29480628295812
2.1337890625,226.95398752422167
2.134765625,227.2388286548835
2.1357421875,226.14886404976005
2.13671875,223.7277378346839
2.1376953125,220.0616010908269
2.138671875,215.2759616359631
2.1396484375,209.53114955903013
2.140625,203.01660893147618
2.1416015625,195.9442618294101
2.142578125,188.54121428308758
2.1435546875,181.04208498146116
2.14453125,173.68123704300484
2.1455078125,166.68518197780313
2.146484375,160.26540454986102
2.1474609375,154.61182932120445
2.1484375,149.88711608251285
2.1494140625,146.22193403890765
2.150390625,143.71132533008677
2.1513671875,142.4122288657393
2.15234375,142.3421969495501
2.1533203125,143.4793008845339
2.154296875,145.76318853671924
2.1552734375,149.09722724093388
2.15625,153.35163976977097
2.1572265625,158.36751944212872
2.158203125,163.96159276070694
2.1591796875,169.9315840787344
2.16015625,176.06202648578054
2.1611328125,182.13035618437368
2.162109375,187.913123936575
2.1630859375,193.19215660560505
2.1640625,197.76050439903625
2.1650390625,201.42801518734282
2.166015625,204.02638634061174
2.1669921875,205.4135570210094
2.16796875,205.47731988288112
2.1689453125,204.13805069179537
2.169921875,201.350477389885
2.1708984375,197.10443634378237
2.171875,191.42459248458917
2.1728515625,184.3691311311031
2.173828125,176.02746163538595
2.1748046875,166.51700555846253
2.17578125,155.97917368303305
2.1767578125,144.57466550838495
2.177734375,132.47825060590034
2.1787109375,119.87321205429144
2.1796875,106.94564692672267
2.1806640625,93.87882647859459
2.181640625,80.84781855708285
2.1826171875,68.01456642071979
2.18359375,55.52360159076221
2.1845703125,43.49854394272856
2.185546875,32.03951075594948
2.1865234375,21.22151905868867
2.1875,11.09392384806238
2.1884765625,1.6808904349205591
2.189453125,-7.017145727936259
2.1904296875,-15.02112172361342
2.19140625,-22.370222043328813
2.1923828125,-29.1181493967253
2.193359375,-35.32898185240719
2.1943359375,-41.072824500852775
2.1953125,-46.42147174500613
2.1962890625,-51.4442937944969
2.197265625,-56.20454792766605
2.1982421875,-60.75629207598272
2.19921875,-65.1420462934557
2.2001953125,-69.3913081853665
2.201171875,-73.51998327800428
2.2021484375,-77.53074284297371
2.203125,-81.41427226523089
2.2041015625,-85.15132518456758
2.205078125,-88.71545482275316
2.2060546875,-92.07625643697698
2.20703125,-95.2029257294753
2.2080078125,-98.06791890862918
2.208984375,-100.65049205642362
2.2099609375,-102.93990108188589
2.2109375,-104.93805880354377
2.2119140625,-106.66147197768933
2.212890625,-108.14231717763613
2.2138671875,-109.42855860585955
2.21484375,-110.58306102661237
2.2158203125,-111.68170454608816
2.216796875,-112.81056223038635
2.2177734375,-114.06225376401119
2.21875,-115.53163579416513
2.2197265625,-117.31102977221273
2.220703125,-119.4852188217972
2.2216796875,-122.12646470948431
2.22265625,-125.28980319210744
2.2236328125,-129.00887029510196
2.224609375,-133.29249350663926
2.2255859375,-138.12225117904472
2.2265625,-143.45116194882138
2.2275390625,-149.20361560771576
2.228515625,-155.27659994353925
2.2294921875,-161.54221733180836
2.23046875,-167.85142322257175
2.2314453125,-174.03885914192495
2.232421875,-179.92859833838497
2.2333984375,-185.34057546259365
2.234375,-190.09743502365765
2.2353515625,-194.03150869013297
2.236328125,-196.991620103741
2.2373046875,-198.8494184105594
2.23828125,-199.50495817667198
2.2392578125,-198.89127305881337
2.240234375,-196.97773221589122
2.2412109375,-193.7720200614609
2.2421875,-189.3206391811895
2.2431640625,-183.70790030589515
2.244140625,-177.0534291506714
2.2451171875,-169.50828461892294
2.24609375,-161.24984331933226
2.2470703125,-152.47565875248185
2.248046875,-143.39654744243742
2.2490234375,-134.22918673265914
2.25,-125.18852851590806
2.2509765625,-116.48033902097464
2.251953125,-108.29416679676908
2.2529296875,-100.79701973483014
2.25390625,-94.1279984905147
2.2548828125,-88.3940897053785
2.255859375,-83.66727016224036
2.2568359375,-79.98301495233851
2.2578125,-77.34024164099817
2.2587890625,-75.70266113592314
2.259765625,-75.00144726742074
2.2607421875,-75.13908359413674
2.26171875,-75.99419993857173
2.2626953125,-77.4271745262156
2.263671875,-79.28625173485607
2.2646484375,-81.41391121074275
2.265625,-83.65322175368665
2.2666015625,-85.85392262596181
2.267578125,-87.87799498936491
2.2685546875,-89.60451573171187
2.26953125,-90.93362332713694
2.2705078125,-91.78946861762621
2.271484375,-92.12207034312138
2.2724609375,-91.90804365259258
2.2734375,-91.15021751065679
2.2744140625,-89.87620181558121
2.275390625,-88.13600535368886
2.2763671875,-85.9988399174496
2.27734375,-83.54927286829877
2.2783203125,-80.88290937712733
2.279296875,-78.10179618042088
2.2802734375,-75.30974100012135
2.28125,-72.60773620169358
2.2822265625,-70.08966254167845
2.283203125,-67.83842996611999
2.2841796875,-65.92268854343214
2.28515625,-64.39421503373025
2.2861328125,-63.286050649788606
2.287109375,-62.61143455880884
2.2880859375,-62.363546840861694
2.2890625,-62.51604504874465
2.2900390625,-63.02435115145169
2.291015625,-63.827621230733314
2.2919921875,-64.85130939554031
2.29296875,-66.01022036298461
2.2939453125,-67.2119322123051
2.294921875,-68.3604620178018
2.2958984375,-69.36004232774576
2.296875,-70.11887563344928
2.2978515625,-70.5527368371866
2.298828125,-70.58830003899797
2.2998046875,-70.16607544359456
2.30078125,-69.24285457228964
2.3017578125,-67.7935769792725
2.302734375,-65.81254904419487
2.3037109375,-63.31396485455899
2.3046875,-60.33170039116847
2.3056640625,-56.918374827944696
2.306640625,-53.14369632956051
2.3076171875,-49.09213377959185
2.30859375,-44.85997980553605
2.3095703125,-40.5518936105836
2.310546875,-36.27703371406878
2.3115234375,-32.144909911361445
2.3125,-28.26109973108447
2.3134765625,-24.72298652759854
2.314453125,-21.615683280460107
2.3154296875,-19.008307464894937
2.31640625,-16.950767438155925
2.3173828125,-15.471209298387585
2.318359375,-14.57425500966374
2.3193359375,-14.240137930448402
2.3203125,-14.424811245870954
2.3212890625,-15.061069016211704
2.322265625,-16.060679774194462
2.3232421875,-17.31749028623028
2.32421875,-18.711413933935376
2.3251953125,-20.11317605718279
2.326171875,-21.389649512229123
2.3271484375,-22.409579628298236
2.328125,-23.049470591647033
2.3291015625,-23.19938673980696
2.330078125,-22.768413713285128
2.3310546875,-21.689526874729932
2.33203125,-19.92362841440467
2.3330078125,-17.46254009031709
2.333984375,-14.330775062558088
2.3349609375,-10.585958625786125
2.3359375,-6.3178221510129715
2.3369140625,-1.645755069510576
2.337890625,3.285036322576246
2.3388671875,8.308649925660665
2.33984375,13.244713371576456
2.3408203125,17.905482053974445
2.341796875,22.103529503331526
2.3427734375,25.659712821633544
2.34375,28.411072003297242
2.3447265625,30.218312963192695
2.345703125,30.97253095727848
2.3466796875,30.600854055958628
2.34765625,29.07072488695978
2.3486328125,26.392591686197584
2.349609375,22.62084473700975
2.3505859375,17.852908827306166
2.3515625,12.226483141034004
2.3525390625,5.915003376222113
2.353515625,-0.8785170623265366
2.3544921875,-7.929033142782171
2.35546875,-14.998100137113049
2.3564453125,-21.84323470479917
2.357421875,-28.227608542424033
2.3583984375,-33.92965576915778
2.359375,-38.7521720217583
2.3603515625,-42.53049961931137
2.361328125,-45.139428691668286
2.3623046875,-46.49849748136351
2.36328125,-46.575443858780964
2.3642578125,-45.38764136768807
2.365234375,-43.00144312010706
2.3662109375,-39.52945137763869
2.3671875,-35.12582519669242
2.3681640625,-29.979828534630578
2.369140625,-24.30790232279476
2.3701171875,-18.34461223112419
2.37109375,-12.332875777707846
2.3720703125,-6.513905462205053
2.373046875,-1.1173170216114094
2.3740234375,3.64815696011114
2.375,7.602937657055061
2.3759765625,10.603493693863545
2.376953125,12.547563223058122
2.3779296875,13.377489968390384
2.37890625,13.081548987501264
2.3798828125,11.693233511470597
2.380859375,9.288570501687188
2.3818359375,5.981624752281667
2.3828125,1.9184349011346629
2.3837890625,-2.7303045281591096
2.384765625,-7.77744638593533
2.3857421875,-13.028075076164612
2.38671875,-18.288252010797457
2.3876953125,-23.373408446178257
2.388671875,-28.11599806655464
2.3896484375,-32.37206684689964
2.390625,-36.02645926647275
2.3916015625,-38.99645447188341
2.392578125,-41.233709478189255
2.3935546875,-42.72447449430648
2.39453125,-43.488133331791595
2.3955078125,-43.57420502075928
2.396484375,-43.058016948081985
2.3974609375,-42.03532132466074
2.3984375,-40.616172572275346
2.3994140625,-38.918411195297686
2.400390625,-37.06110873873781
2.4013671875,-35.158318460026216
2.40234375,-33.31344830270671
2.4033203125,-31.614528581821855
2.404296875,-30.130589224565316
2.4052734375,-28.909293908270836
2.40625,-27.975904913162
2.4072265625,-27.333577133569932
2.408203125,-26.96490665543891
2.4091796875,-26.83459256770719
2.41015625,-26.893013765162642
2.4111328125,-27.080478308840437
2.412109375,-27.33187355485941
2.4130859375,-27.581431971964573
2.4140625,-27.76733063942446
2.4150390625,-27.83586121385394
2.416015625,-27.744940162124077
2.4169921875,-27.46677400909639
2.41796875,-26.989548345705725
2.4189453125,-26.318069067948546
2.419921875,-25.47334620686199
2.4208984375,-24.491171205973647
2.421875,-23.419794214648046
2.4228515625,-22.316855904960757
2.423828125,-21.245766030283555
2.4248046875,-20.271746651235368
2.42578125,-19.457770630408945
2.4267578125,-18.860625409366946
2.427734375,-18.527318768573473
2.4287109375,-18.49201848014108
2.4296875,-18.77368336858977
2.4306640625,-19.37450162407657
2.431640625,-20.2792059297621
2.4326171875,-21.455286861723824
2.43359375,-22.85407886155979
2.4345703125,-24.4126494313199
2.435546875,-26.05638428444238
2.4365234375,-27.702130749172134
2.4375,-29.261739992219375
2.4384765625,-30.645836218735568
2.439453125,-31.767637956194168
2.4404296875,-32.54666232139655
2.44140625,-32.91215679167838
2.4423828125,-32.8061230787149
2.443359375,-32.18582257091955
2.4443359375,-31.025680695860892
2.4453125,-29.318536658298367
2.4462890625,-27.076213677483338
2.447265625,-24.329411627785905
2.4482421875,-21.126947761497306
2.44921875,-17.53439118095621
2.4501953125,-13.63215254394554
2.451171875,-9.51310211467201
2.4521484375,-5.279797008356838
2.453125,-1.0414028961052064
2.4541015625,3.0896027358856797
2.455078125,7.0008586231721965
2.4560546875,10.583592842972543
2.45703125,13.736056056904523
2.4580078125,16.36683101876426
2.458984375,18.39793521186031
2.4599609375,19.767633884028278
2.4609375,20.432881171947614
2.4619140625,20.371308028174393
2.462890625,19.582678067683034
2.4638671875,18.089737110561654
2.46484375,15.938390004729094
2.4658203125,13.197150055036282
2.466796875,9.955822637532211
2.4677734375,6.323405619192387
2.46875,2.425214914521074
2.4697265625,-1.6007266452554199
2.470703125,-5.607965980743888
2.4716796875,-9.44645614147523
2.47265625,-12.967811979120105
2.4736328125,-16.0308122985448
2.474609375,-18.506947679777923
2.4755859375,-20.28579182241591
2.4765625,-21.279961673219024
2.4775390625,-21.42942950335121
2.478515625,-20.704959809823702
2.4794921875,-19.11046609404761
2.48046875,-16.684117194390584
2.4814453125,-13.49806911786006
2.482421875,-9.656754648364155
2.4833984375,-5.293727078613127
2.484375,-0.5671232672143935
2.4853515625,4.346118622468961
2.486328125,9.257083668083693
2.4873046875,13.972482681212513
2.48828125,18.302717147608167
2.4892578125,22.070053477982032
2.490234375,25.116532132076998
2.4912109375,27.311234206735662
2.4921875,28.556544488748877
2.4931640625,28.793085752509842
2.494140625,28.0030530971405
2.4951171875,26.211747170902793
2.49609375,23.487188003128594
2.4970703125,19.937782810808503
2.498046875,15.708116874873996
2.4990234375,10.973031329952429
2.5,5.930240313354173
2.5009765625,0.7918174311011378
2.501953125,-4.225056540900766
2.5029296875,-8.907650068402859
2.50390625,-13.057085897369051
2.5048828125,-16.49714179784154
2.505859375,-19.08202026310593
2.5068359375,-20.70270906673797
2.5078125,-21.29162334240121
2.5087890625,-20.825305157896523
2.509765625,-19.325053921343898
2.5107421875,-16.85546515227474
2.51171875,-13.520960565020216
2.5126953125,-9.460493316986772
2.513671875,-4.840703213743434
2.5146484375,0.1521272917456234
2.515625,5.320908367709063
2.5166015625,10.46692624416978
2.517578125,15.398920248448787
2.5185546875,19.941611439974665
2.51953125,23.943276523746878
2.5205078125,27.282017225409316
2.521484375,29.870449224134713
2.5224609375,31.658621704763274
2.5234375,32.63507358597615
2.5244140625,32.826030102528364
2.525390625,32.292838233206325
2.5263671875,31.127826297925864
2.52734375,29.44884731890536
2.5283203125,27.39282369030184
2.529296875,25.108649620992896
2.5302734375,22.74982617579036
2.53125,20.467201243039664
2.5322265625,18.402164338967328
2.533203125,16.680605886358098
2.5341796875,15.407895518545102
2.53515625,14.66506785934579
2.5361328125,14.506331421223768
2.537109375,14.957941262143711
2.5380859375,16.018403301793416
2.5390625,17.65991182913651
2.5400390625,19.83086524258856
2.541015625,22.45926119659365
2.5419921875,25.45674287185334
2.54296875,28.723053844880223
2.5439453125,32.15065978761847
2.544921875,35.6293098177284
2.5458984375,39.05033674529165
2.546875,42.31053108046918
2.5478515625,45.31546538211378
2.548828125,47.9821900401168
2.5498046875,50.24126563172596
2.55078125,52.03813755935265
2.5517578125,53.333893234166
2.552734375,54.10546868413484
2.5537109375,54.34538897843604
2.5546875,54.06113486807683
2.5556640625,53.27422695235069
2.556640625,52.01910960363764
2.5576171875,50.3419015415424
2.55859375,48.29906050276056
2.5595703125,45.95598831107686
2.560546875,43.385582283512
2.5615234375,40.6667216043915
2.5625,37.882665017588735
2.5634765625,35.11933036561502
2.564453125,32.46342795840561
2.5654296875,30.000428600757623
2.56640625,27.8123627544376
2.5673828125,25.97546848915665
2.568359375,24.557730761474982
2.5693359375,23.616380882416536
2.5703125,23.195450275454256
2.5712890625,23.323494218593066
2.572265625,24.011616790694266
2.5732421875,25.251935636126838
2.57421875,27.016622900884432
2.5751953125,29.257645909275187
2.576171875,31.90730776168894
2.5771484375,34.879654749617615
2.578125,38.072775812992155
2.5791015625,41.37197142287372
2.580078125,44.653718056080216
2.5810546875,47.79030304776792
2.58203125,50.65495645786775
2.5830078125,53.12726504561994
2.583984375,55.09862161097387
2.5849609375,56.477443456045556
2.5859375,57.19388848127815
2.5869140625,57.203807558732585
2.587890625,56.49169749630392
2.5888671875,55.072459309227014
2.58984375,52.99181989548896
2.5908203125,50.325338940260764
2.591796875,47.17599360055951
2.5927734375,43.67040736235632
2.59375,39.95386224567885
2.5947265625,36.18430101595191
2.595703125,32.52558424380715
2.5966796875,29.140312385438715
2.59765625,26.182552673250076
2.5986328125,23.790822531880714
2.599609375,22.081674484287074
2.6005859375,21.14420218558835
2.6015625,21.035744489576402
2.6025390625,21.779006510875536
2.603515625,23.360746579789478
2.6044921875,25.732099588191964
2.60546875,28.810524791485733
2.6064453125,32.48328418495405
2.607421875,36.61228061141502
2.6083984375,41.0400169862111
2.609375,45.59638311548142
2.6103515625,50.10593745664462
2.611328125,54.395329825595745
2.6123046875,58.300508492511184
2.61328125,61.6733712377885
2.6142578125,64.38755363179808
2.615234375,66.34309696630734
2.6162109375,67.46979995980244
2.6171875,67.72912900577403
2.6181640625,67.11463732413688
2.619140625,65.65091970313651
2.6201171875,63.39120243787754
2.62109375,60.41373372737841
2.6220703125,56.81719483947675
2.623046875,52.715394120519505
2.6240234375,48.23153258561587
2.625,43.49234041614614
2.6259765625,38.62237821129387
2.626953125,33.738776155737675
2.6279296875,28.946650075903793
2.62890625,24.335388039872445
2.6298828125,19.975947614945046
2.630859375,15.919245370575311
2.6318359375,12.19566008500206
2.6328125,8.815612691468855
2.6337890625,5.77113235072034
2.634765625,3.0382718110755356
2.6357421875,0.5801985218129667
2.63671875,-1.6492377343992426
2.6376953125,-3.70167385104129
2.638671875,-5.630354272419609
2.6396484375,-7.486409741742022
2.640625,-9.315480585336926
2.6416015625,-11.154843372319762
2.642578125,-13.031165487869318
2.6435546875,-14.958973593254271
2.64453125,-16.939881412640926
2.6455078125,-18.962582012215275
2.646484375,-21.00357176983765
2.6474609375,-23.02853932064545
2.6484375,-24.994324299852977
2.6494140625,-26.851328665630497
2.650390625,-28.546248313163435
2.6513671875,-30.024984722594603
2.65234375,-31.23559525736404
2.6533203125,-32.13114586805197
2.654296875,-32.67234053586691
2.6552734375,-32.829816798954404
2.65625,-32.5860150609364
2.6572265625,-31.936549985312112
2.658203125,-30.891034083002804
2.6591796875,-29.47332568959242
2.66015625,-27.72119510557521
2.6611328125,-25.685423147863485
2.662109375,-23.428365273472686
2.6630859375,-21.0220315095673
2.6640625,-18.545747492943995
2.6650390625,-16.083474906686742
2.666015625,-13.720880480526834
2.6669921875,-11.542251464687334
2.66796875,-9.627362053599514
2.6689453125,-8.04839950887533
2.669921875,-6.8670605494719394
2.6708984375,-6.131927698421262
2.671875,-5.876231407046318
2.6728515625,-6.116096624888054
2.673828125,-6.849361744440457
2.6748046875,-8.055043316942228
2.67578125,-9.693501512901138
2.6767578125,-11.70733906542508
2.677734375,-14.02304068288047
2.6787109375,-16.553331201554027
2.6796875,-19.20019987622806
2.6806640625,-21.85850626504494
2.681640625,-24.420051472309606
2.6826171875,-26.777968589006797
2.68359375,-28.83125966939603
2.6845703125,-30.489285202499612
2.685546875,-31.67599742511869
2.6865234375,-32.33370248354802
2.6875,-32.42613961164944
2.6884765625,-31.940679029347216
2.689453125,-30.8894645919158
2.6904296875,-29.309362227400108
2.69140625,-27.260620205023848
2.6923828125,-24.824201002772345
2.693359375,-22.0978051447129
2.6943359375,-19.190672466776668
2.6953125,-16.21731302943127
2.6962890625,-13.290385164534532
2.697265625,-10.512998575163255
2.6982421875,-7.970772618289701
2.69921875,-5.7240206616891856
2.7001953125,-3.8004577891129254
2.701171875,-2.188838718945477
2.7021484375,-0.8339238211701532
2.703125,0.3668574194340111
2.7041015625,1.5647243412572966
2.705078125,2.9585903032652547
2.7060546875,4.791664998936513
2.70703125,7.34554199230572
2.7080078125,10.931808452484816
2.708984375,15.881329209085003
2.7099609375,22.531473758828948
2.7109375,31.211667429725694
2.7119140625,42.227751145197004
2.712890625,55.845722826234045
2.7138671875,72.2755024994863
2.71484375,91.6554083525626
2.7158203125,114.03804885657146
2.716796875,139.37832428723672
2.7177734375,167.52418837990038
2.71875,198.21074764502006
2.7197265625,231.0581736388268
2.720703125,265.57377520242096
2.7216796875,301.15842765319906
2.72265625,337.11738957993174
2.7236328125,372.6753617201961
2.724609375,406.99546354107446
2.7255859375,439.20162920756167
2.7265625,468.4037633100208
2.7275390625,493.72485550005035
2.728515625,514.3291389270579
2.7294921875,529.450296036949
2.73046875,538.4186716287177
2.7314453125,540.686450315613
2.732421875,535.8497952912289
2.7333984375,523.6670273198667
2.734375,504.07204508353203
2.7353515625,477.1823465001651
2.736328125,443.30119978321346
2.7373046875,402.91372571613755
2.73828125,356.67688052662965
2.7392578125,305.40356264106737
2.740234375,250.04129674452474
2.7412109375,191.64616518460267
2.7421875,131.35285040759516
2.7431640625,70.3418141809864
2.744140625,9.804762433330753
2.7451171875,-49.09037721005156
2.74609375,-105.23370867162664
2.7470703125,-157.6056161662032
2.748046875,-205.30584478316817
2.7490234375,-247.578368694157
2.75,-283.83116537916743
2.7509765625,-313.6502133686496
2.751953125,-336.8072582965064
2.7529296875,-353.26113789963495
2.75390625,-363.15271046119113
2.7548828125,-366.7936821501985
2.755859375,-364.649865905192
2.7568359375,-357.3196177120568
2.7578125,-345.50837615213436
2.7587890625,-330.00037028484354
2.759765625,-311.62865347595
2.7607421875,-291.24466302559745
2.76171875,-269.68849603586955
2.7626953125,-247.76103190828923
2.763671875,-226.1989245128214
2.7646484375,-205.65333790058648
2.765625,-186.67311580814635
2.7666015625,-169.69286599615236
2.767578125,-155.02621562190436
2.7685546875,-142.8642639144861
2.76953125,-133.2790340061192
2.7705078125,-126.23151706165962
2.771484375,-121.58371808203592
2.7724609375,-119.11396182385081
2.7734375,-118.5346053391918
2.7744140625,-119.51123484383425
2.775390625,-121.68240095762002
2.7763671875,-124.67896757530771
2.77734375,-128.14221330214542
2.7783203125,-131.73992609255373
2.779296875,-135.17986529471113
2.7802734375,-138.22012315793208
2.78125,-140.67609145799656
2.7822265625,-142.42391917285187
2.783203125,-143.40052497346795
2.7841796875,-143.60039497911495
2.78515625,-143.0695439094897
2.7861328125,-141.89713981136325
2.787109375,-140.20538384869266
2.7880859375,-138.1382938675451
2.7890625,-135.8500620825791
2.7900390625,-133.49364367136062
2.791015625,-131.21018649216325
2.7919921875,-129.1198363545637
2.79296875,-127.31435244030877
2.7939453125,-125.85184979186343
2.794921875,-124.75385714555985
2.7958984375,-124.00474593450063
2.796875,-123.55345709320277
2.7978515625,-123.31733293076378
2.798828125,-123.18775758125753
2.7998046875,-123.03722607485076
2.80078125,-122.72740231407886
2.8017578125,-122.11769218318713
2.802734375,-121.07385020504367
2.8037109375,-119.47615573560743
2.8046875,-117.22673547252255
2.8056640625,-114.25566978498681
2.806640625,-110.5255968693587
2.8076171875,-106.03461624064123
2.80859375,-100.81738647497814
2.8095703125,-94.9444063127356
2.810546875,-88.51955834719294
2.8115234375,-81.67607619295718
2.8125,-74.57116559982451
2.8134765625,-67.37956466377472
2.814453125,-60.286366249013945
2.8154296875,-53.47944614480017
2.81640625,-47.14184346789966
2.8173828125,-41.44442641856451
2.818359375,-36.5391484966777
2.8193359375,-32.553160105611646
2.8203125,-29.58399094212767
2.8212890625,-27.69596277299509
2.822265625,-26.9179332506406
2.8232421875,-27.242412314319353
2.82421875,-28.62603615995676
2.8251953125,-30.99133204073379
2.826171875,-34.22966209551967
2.8271484375,-38.20519725407315
2.828125,-42.75974377154038
2.8291015625,-47.71822530969655
2.830078125,-52.894612463181325
2.8310546875,-58.09808860689032
2.83203125,-63.13924501944834
2.8330078125,-67.83610834756178
2.833984375,-72.01981847178976
2.8349609375,-75.53979359358917
2.8359375,-78.26824084599576
2.8369140625,-80.10389406587885
2.837890625,-80.97488482903886
2.8388671875,-80.84067793102186
2.83984375,-79.69302783946793
2.8408203125,-77.55593802202803
2.841796875,-74.48463034524164
2.8427734375,-70.56355683493439
2.84375,-65.90351085912395
2.8447265625,-60.63791903410577
2.845703125,-54.918418535278924
2.8466796875,-48.90984653709966
2.84765625,-42.784788597288085
2.8486328125,-36.71785016610342
2.849609375,-30.879829193115977
2.8505859375,-25.431977103720445
2.8515625,-20.520539347371503
2.8525390625,-16.271764489258835
2.853515625,-12.787561818922608
2.8544921875,-10.14197134212899
2.85546875,-8.378586764326066
2.8564453125,-7.509042021125745
2.857421875,-7.512635794733371
2.8583984375,-8.337127413557408
2.859375,-9.900693067028579
2.8603515625,-12.094985200772989
2.861328125,-14.78919232660194
2.8623046875,-17.834953468896884
2.86328125,-21.07194325161508
2.8642578125,-24.333912266756347
2.865234375,-27.454944674701114
2.8662109375,-30.27568240892522
2.8671875,-32.64926386884949
2.8681640625,-34.44673501682291
2.869140625,-35.56171216165859
2.8701171875,-35.91410764449269
2.87109375,-35.452770756430034
2.8720703125,-34.15694461336596
2.873046875,-32.03649304904766
2.8740234375,-29.130907207617938
2.875,-25.507156593675205
2.8759765625,-21.25650103859316
2.876953125,-16.4904256697838
2.8779296875,-11.33589815451723
2.87890625,-5.930174298947292
2.8798828125,-0.41539314748472606
2.880859375,5.066794658796596
2.8818359375,10.380331365147146
2.8828125,15.39937716608206
2.8837890625,20.012275658903498
2.884765625,24.124720053675954
2.8857421875,27.66202713267044
2.88671875,30.57047590313151
2.8876953125,32.817718237752814
2.888671875,34.39231664628021
2.8896484375,35.302506938147936
2.890625,35.57431853788237
2.8916015625,35.24921072136959
2.892578125,34.381397761783475
2.8935546875,33.035039316401736
2.89453125,31.281464459762866
2.8955078125,29.196579409011985
2.896484375,26.85858166482854
2.8974609375,24.346069045659153
2.8984375,21.73659339175073
2.8994140625,19.105668288646225
2.900390625,16.52620083893448
2.9013671875,14.068282036592697
2.90234375,11.799241141154736
2.9033203125,9.783848664553895
2.904296875,8.084541642132772
2.9052734375,6.761544595350866
2.90625,5.872770088298209
2.9072265625,5.473403406984072
2.908203125,5.615105292433605
2.9091796875,6.34480287722557
2.91015625,7.703079533073275
2.9111328125,9.722216407912981
2.912109375,12.42397901865133
2.9130859375,15.817278396064685
2.9140625,19.895865173656038
2.9150390625,24.636234312856256
2.916015625,29.995926046932357
2.9169921875,35.91240398297339
2.91796875,42.30267378262463
2.9189453125,49.063775921276445
2.919921875,56.07424499690383
2.9208984375,63.196577963216164
2.921875,70.28069719712948
2.9228515625,77.16833466953277
2.923828125,83.69820418902167
2.9248046875,89.71177335804637
2.92578125,95.059399044582
2.9267578125,99.60655303879608
2.927734375,103.23984081616157
2.9287109375,105.87250795668962
2.9296875,107.44913693181913
2.9306640625,107.94926190096788
2.931640625,107.38967012441651
2.9326171875,105.8252139290127
2.93359375,103.3480243074738
2.9345703125,100.08509289542131
2.935546875,96.194269385416
2.9365234375,91.85880215609906
2.9375,87.28062665399283
2.9384765625,82.67267458230033
2.939453125,78.25053332440744
2.9404296875,74.22382591817248
2.94140625,70.78770474062054
2.9423828125,68.1148552460351
2.943359375,66.348389035127
2.9443359375,65.59596873370545
2.9453125,65.92545221837995
2.9462890625,67.36227323731713
2.947265625,69.8886929254278
2.9482421875,73.44496627007459
2.94921875,77.93237391383128
2.9501953125,83.21797766131127
2.951171875,89.14087253386725
2.9521484375,95.51963373523952
2.953125,102.16059743912155
2.9541015625,108.86657309828284
2.955078125,115.44556425695181
2.9560546875,121.71907579641203
2.95703125,127.52960816182646
2.9580078125,132.7469822646151
2.958984375,137.27320016787348
2.9599609375,141.04562310445533
2.9609375,144.03833580627912
2.9619140625,146.2616598862056
2.962890625,147.75987414587766
2.9638671875,148.6072911297809
2.96484375,148.90292217358396
2.9658203125,148.76403323792408
2.966796875,148.31894732744058
2.9677734375,147.6994835079131
2.96875,147.03343577810423
2.9697265625,146.4374867592203
2.970703125,146.01092196829126
2.9716796875,145.83046208341398
2.97265625,145.9464658673043
2.9736328125,146.3806789400789
2.974609375,147.12561769013698
2.9755859375,148.1455880171126
2.9765625,149.37925020715068
2.9775390625,150.7435588335148
2.978515625,152.13883456478393
2.9794921875,153.4546669442699
2.98046875,154.57630657438082
2.9814453125,155.39118370431376
2.982421875,155.79518892135494
2.9833984375,155.69837032170923
2.984375,155.02973891368572
2.9853515625,153.7409278212432
2.986328125,151.80851795459867
2.9873046875,149.23491937105234
2.98828125,146.0477792400009
2.9892578125,142.29796963475744
2.990234375,138.056286771071
2.9912109375,133.40906356456205
2.9921875,128.45295574169927
2.9931640625,123.28920516511623
2.994140625,118.01771033156359
2.9951171875,112.7312419386935
2.99609375,107.51013077419763
2.9970703125,102.41772675136711
2.998046875,97.49688343602978
2.9990234375,92.76766447029878
3.0,88.22640016023416
3.0009765625,83.84614793095034
3.001953125,79.57853342646291
3.0029296875,75.3568738597367
3.00390625,71.1004157760225
3.0048828125,66.71945929160499
3.005859375,62.12109316164922
3.0068359375,57.215232093609295
3.0078125,51.92063110515893
3.0087890625,46.17055211843505
3.009765625,39.91777519058105
3.0107421875,33.1386797328396
3.01171875,25.836167938515665
3.0126953125,18.04126089369761
3.013671875,9.813264444587565
3.0146484375,1.2384734350439297
3.015625,-7.5725441945012415
3.0166015625,-16.48897132659626
3.017578125,-25.36489652562799
3.0185546875,-34.04536654987438
3.01953125,-42.37305837604005
3.0205078125,-50.19526110831229
3.021484375,-57.370841367850716
3.0224609375,-63.77686432547014
3.0234375,-69.31455635692316
3.0244140625,-73.91432357604621
3.025390625,-77.53958181231731
3.0263671875,-80.18920594245324
3.02734375,-81.89846742645561
3.0283203125,-82.73839564910105
3.029296875,-82.81356824461899
3.0302734375,-82.25840492623732
3.03125,-81.23210545503355
3.0322265625,-79.91243244421274
3.033203125,-78.48859118296157
3.0341796875,-77.15349944474205
3.03515625,-76.09576864323199
3.0361328125,-75.49173257129947
3.037109375,-75.49786071580263
3.0380859375,-76.24387976207444
3.0390625,-77.8268999417986
3.0400390625,-80.30680341589365
3.041015625,-83.70310151172923
3.0419921875,-87.99340835496201
3.04296875,-93.11361263534155
3.0439453125,-98.9597595466225
3.044921875,-105.39158416915473
3.0458984375,-112.2375685909941
3.046875,-119.30133072095293
3.0478515625,-126.36909573594502
3.048828125,-133.21795383646466
3.0498046875,-139.6245725500849
3.05078125,-145.3740098414269
3.0517578125,-150.26826686984342
3.052734375,-154.13422691032875
3.0537109375,-156.83064962826788
3.0546875,-158.2539268446357
3.0556640625,-158.34235580588887
3.056640625,-157.0787468366008
3.0576171875,-154.49125165376023
3.05859375,-150.6523736689159
3.0595703125,-145.67619908808305
3.060546875,-139.7139641501377
3.0615234375,-132.94814598782907
3.0625,-125.58532904820645
3.0634765625,-117.8481527310018
3.064453125,-109.96668629390653
3.0654296875,-102.16960209689017
3.06640625,-94.67552655738783
3.0673828125,-87.68493918051891
3.068359375,-81.37296394547586
3.0693359375,-75.88335523269139
3.0703125,-71.32392424011705
3.0712890625,-67.76358403921981
3.072265625,-65.23111527533379
3.0732421875,-63.71567368793423
3.07421875,-63.16897906828236
3.0751953125,-63.509047019650524
3.076171875,-64.62525385875387
3.0771484375,-66.38446477546796
3.078125,-68.63790900993386
3.0791015625,-71.22845566642381
3.080078125,-73.99793138140828
3.0810546875,-76.79412699832851
3.08203125,-79.47716428003257
3.0830078125,-81.9249341782559
3.083984375,-84.037373030763
3.0849609375,-85.73940923695676
3.0859375,-86.98248684052585
3.0869140625,-87.74464993082356
3.087890625,-88.02924862766228
3.0888671875,-87.86239939153195
3.08984375,-87.28939559556004
3.0908203125,-86.37031527521788
3.091796875,-85.17510903499516
3.0927734375,-83.77847039468922
3.09375,-82.25479254610575
3.0947265625,-80.67349971884956
3.095703125,-79.0950093132369
3.0966796875,-77.56753476106395
3.09765625,-76.12488168042233
3.0986328125,-74.78532486789456
3.099609375,-73.55158503123936
3.1005859375,-72.41185609416544
3.1015625,-71.34177050231874
3.1025390625,-70.30713502099525
3.103515625,-69.2672262553249
3.1044921875,-68.1784060256625
3.10546875,-66.99780337254039
3.1064453125,-65.6868129167995
3.107421875,-64.2141781307848
3.1083984375,-62.55846134331271
3.109375,-60.70974767763477
3.1103515625,-58.67048453591363
3.111328125,-56.45541807723968
3.1123046875,-54.09064946035154
3.11328125,-51.611892452374725
3.1142578125,-49.06206655125987
3.115234375,-46.48840267403174
3.1162109375,-43.939269037173894
3.1171875,-41.46094121064315
3.1181640625,-39.09454153900199
3.119140625,-36.87335924281918
3.1201171875,-34.82073459230919
3.12109375,-32.94865054596366
3.1220703125,-31.257125913279257
3.123046875,-29.734448771556686
3.1240234375,-28.358231267539626
3.125,-27.097210917362226
3.1259765625,-25.91367280292351
3.126953125,-24.76632502481406
3.1279296875,-23.61342916590524
3.12890625,-22.415970367890868
3.1298828125,-21.14064901121002
3.130859375,-19.762488063923477
3.1318359375,-18.266876077028115
3.1328125,-16.650903792756598
3.1337890625,-14.923899846263158
3.134765625,-13.107124883321502
3.1357421875,-11.232639995817333
3.13671875,-9.341420915450506
3.1376953125,-7.480840199467848
3.138671875,-5.701682323372334
3.1396484375,-4.054888323085962
3.140625,-2.588245307584767
3.1416015625,-1.3432405572973962
3.142578125,-0.3522897545726685
3.1435546875,0.3634751600666244
3.14453125,0.7957093443685103
3.1455078125,0.949546663306604
3.146484375,0.8434296058581023
3.1474609375,0.5080838855071474
3.1484375,-0.01529997777629802
3.1494140625,-0.677563956037443
3.150390625,-1.4246001904512307
3.1513671875,-2.200696552591414
3.15234375,-2.95199617513898
3.1533203125,-3.6298495618127573
3.154296875,-4.193844794466062
3.1552734375,-4.6143221513733375
3.15625,-4.874212723036069
3.1572265625,-4.970084138061279
3.158203125,-4.912327407947485
3.1591796875,-4.724473821118159
3.16015625,-4.441686166494592
3.1611328125,-4.10852075597214
3.162109375,-3.776102373340563
3.1630859375,-3.4988904981340356
3.1640625,-3.3312396723811903
3.1650390625,-3.323968200711857
3.166015625,-3.521146908410808
3.1669921875,-3.9573037175159387
3.16796875,-4.655211529990553
3.1689453125,-5.624388298650665
3.169921875,-6.86039185782915
3.1708984375,-8.344941174797707
3.171875,-10.046843544640627
3.1728515625,-11.923657284694253
3.173828125,-13.9239749076359
3.1748046875,-15.990175375602087
3.17578125,-18.061468102851222
3.1767578125,-20.07703737826025
3.177734375,-21.979094525639745
3.1787109375,-23.715656251253254
3.1796875,-25.242890262604636
3.1806640625,-26.52690165073957
3.181640625,-27.544873354967947
3.1826171875,-28.285518465956667
3.18359375,-28.74884810705721
3.1845703125,-28.945303040695055
3.185546875,-28.894337027410085
3.1865234375,-28.62257273340942
3.1875,-28.16167456424085
3.1884765625,-27.546095810370296
3.189453125,-26.8108592712605
3.1904296875,-25.989521212610864
3.19140625,-25.112448998856436
3.1923828125,-24.205514616057833
3.193359375,-23.289271712791468
3.1943359375,-22.37864530495534
3.1953125,-21.48312371922316
3.1962890625,-20.607404520166998
3.197265625,-19.75241275449557
3.1982421875,-18.916583183395257
3.19921875,-18.097280083689586
3.2001953125,-17.292219885308633
3.201171875,-16.5007638782597
3.2021484375,-15.72496023607679
3.203125,-14.970235729517453
3.2041015625,-14.24566616961098
3.205078125,-13.563788724492003
3.2060546875,-12.93995632353554
3.20703125,-12.391271726491164
3.2080078125,-11.935173797942548
3.208984375,-11.587778562091858
3.2099609375,-11.36210055456861
3.2109375,-11.266294128695115
3.2119140625,-11.30205864593091
3.212890625,-11.46334546909935
3.2138671875,-11.735488681698154
3.21484375,-12.09485645893019
3.2158203125,-12.509087611511166
3.216796875,-12.937940114593358
3.2177734375,-13.334737888099257
3.21875,-13.64836138832549
3.2197265625,-13.825689393051933
3.220703125,-13.81436625881147
3.2216796875,-13.56574311623033
3.22265625,-13.03782471049236
3.2236328125,-12.198047061311685
3.224609375,-11.025715344848043
3.2255859375,-9.513946224126698
3.2265625,-7.670983454527371
3.2275390625,-5.520788522065033
3.228515625,-3.1028473725541095
3.2294921875,-0.47117760733003083
3.23046875,2.307434742866425
3.2314453125,5.155896270219755
3.232421875,7.989852827263211
3.2333984375,10.72117603779843
3.234375,13.26171861831864
3.2353515625,15.527151661489503
3.236328125,17.44069166750893
3.2373046875,18.936530399884745
3.23828125,19.962796181706437
3.2392578125,20.48390004629484
3.240234375,20.48215268380264
3.2412109375,19.958576449290558
3.2421875,18.932878566997896
3.2431640625,17.442594687159797
3.244140625,15.541453720457893
3.2451171875,13.29705310821727
3.24609375,10.787966376984304
3.2470703125,8.10043032517256
3.248046875,5.324776318713993
3.2490234375,2.551778257023082
3.25,-0.1309113355729572
3.2509765625,-2.6420755499970894
3.251953125,-4.909853982491181
3.2529296875,-6.874151140441008
3.25390625,-8.488442870751713
3.2548828125,-9.720924253719238
3.255859375,-10.554976736930133
3.2568359375,-10.98896612178899
3.2578125,-11.035414593740402
3.2587890625,-10.719617755482977
3.259765625,-10.077800324516765
3.2607421875,-9.154920880667936
3.26171875,-8.002246271055052
3.2626953125,-6.674819851968694
3.263671875,-5.228944906656564
3.2646484375,-3.7197958844457535
3.265625,-2.1992564086521216
3.2666015625,-0.7140653545629859
3.267578125,0.6956680948654312
3.2685546875,1.9975413977646934
3.26953125,3.1675107248861387
3.2705078125,4.190122502438814
3.271484375,5.058348081298804
3.2724609375,5.7730617435613
3.2734375,6.342215451166144
3.2744140625,6.7797732059023765
3.275390625,7.104473471185512
3.2763671875,7.33848989699127
3.27734375,7.506058848911059
3.2783203125,7.632137413936523
3.279296875,7.741148182727065
3.2802734375,7.8558578262717935
3.28125,7.996425945209075
3.2822265625,8.179649538306272
3.283203125,8.418417308309195
3.2841796875,8.721377454008211
3.28515625,9.09281301549483
3.2861328125,9.532710604387463
3.287109375,10.03700167419811
3.2880859375,10.597950506153975
3.2890625,11.204659808181319
3.2900390625,11.843663190627522
3.291015625,12.499573650747706
3.2919921875,13.155758368144918
3.29296875,13.795012361339708
3.2939453125,14.400206630421799
3.294921875,14.954890053988137
3.2958984375,15.443828286173645
3.296875,15.85346698404046
3.2978515625,16.172310695049752
3.298828125,16.391212495463733
3.2998046875,16.503572862217656
3.30078125,16.50544920738327
3.3017578125,16.395579954399178
3.302734375,16.175328971856775
3.3037109375,15.84855762266031
3.3046875,15.421432674404754
3.3056640625,14.902178911389285
3.306640625,14.30078557174784
3.3076171875,13.628675781851362
3.30859375,12.898348079476198
3.3095703125,12.122998975654827
3.310546875,11.316135392746636
3.3115234375,10.491185784138667
3.3125,9.661118829429574
3.3134765625,8.838078815819843
3.314453125,8.033047142053876
3.3154296875,7.255539758909846
3.31640625,6.513350714224596
3.3173828125,5.812352177984781
3.318359375,5.1563612639589635
3.3193359375,4.547083490092622
3.3203125,3.98414169286907
3.3212890625,3.4651975040310727
3.322265625,2.9861700214792926
3.3232421875,2.5415530040888417
3.32421875,2.124827815831721
3.3251953125,1.7289645034731447
3.326171875,1.3469979939340253
3.3271484375,0.9726606561524608
3.328125,0.6010467258629889
3.3291015625,0.22927869502373743
3.330078125,-0.14285885218967476
3.3310546875,-0.5123558724683301
3.33203125,-0.8725236425790505
3.3330078125,-1.2126910837015288
3.333984375,-1.5180874184130815
3.3349609375,-1.7699428009820155
3.3359375,-1.945830825043978
3.3369140625,-2.020266599878974
3.337890625,-1.9655616870222603
3.3388671875,-1.7529230751068021
3.33984375,-1.3537681910861135
3.3408203125,-0.7412124940681725
3.341796875,0.10832861118382647
3.3427734375,1.2134949974280882
3.34375,2.5863762194577506
3.3447265625,4.231034198319212
3.345703125,6.142245995220964
3.3466796875,8.304556236211985
3.34765625,10.691721159371491
3.3486328125,13.26661325842095
3.349609375,15.981637328076857
3.3505859375,18.779685973026737
3.3515625,21.595636244064014
3.3525390625,24.35836023844156
3.353515625,26.993192724165873
3.3544921875,29.42476977680175
3.35546875,31.58012579624025
3.3564453125,33.39191383364592
3.357421875,34.80159751601289
3.3583984375,35.76245339019496
3.359375,36.24222126435218
3.3603515625,36.2252477458167
3.361328125,35.71398479351859
3.3623046875,34.72973035872397
3.36328125,33.31253116322792
3.3642578125,31.52020694524358
3.365234375,29.426499217816264
3.3662109375,27.118393505656364
3.3671875,24.69270966089439
3.3681640625,22.25209762267769
3.369140625,19.900613317387577
3.3701171875,17.739078933850266
3.37109375,15.860451537333265
3.3720703125,14.34543236582141
3.373046875,13.258545238314113
3.3740234375,12.644896033523539
3.375,12.527796604498109
3.3759765625,12.907396960414346
3.376953125,13.760420897820723
3.3779296875,15.041044941271743
3.37890625,16.68290134867216
3.3798828125,18.60212625745995
3.380859375,20.701317125038063
3.3818359375,22.874212723463028
3.3828125,25.010867089744565
3.3837890625,27.00305857369846
3.384765625,28.74965841828885
3.3857421875,30.161681374837233
3.38671875,31.166754082457754
3.3876953125,31.712764852619884
3.388671875,31.770499762630067
3.3896484375,31.33512244637348
3.390625,30.42641587073456
3.3916015625,29.08777035729838
3.392578125,27.38396948326448
3.3935546875,25.39789046767484
3.39453125,23.22629451658275
3.3955078125,20.974931981997155
3.396484375,18.753224214770785
3.3974609375,16.668806502643484
3.3984375,14.82222313779669
3.3994140625,13.302056037102574
3.400390625,12.180742969746914
3.4013671875,11.511301774374951
3.40234375,11.325125258847121
3.4033203125,11.630950757545003
3.404296875,12.415042095158368
3.4052734375,13.64255380820376
3.40625,15.25998183416214
3.4072265625,17.198545285881227
3.408203125,19.378293792845067
3.4091796875,21.71269706226591
3.41015625,24.113449894591522
3.4111328125,26.495218112325876
3.412109375,28.780059036760125
3.4130859375,30.90127363440293
3.4140625,32.806484702220295
3.4150390625,34.459784118061926
3.416015625,35.842849258167526
3.4169921875,36.954990686651634
3.41796875,37.812156439791714
3.4189453125,38.44497889786545
3.419921875,38.89600480170323
3.4208984375,39.21629429500862
3.421875,39.46160839757693
3.4228515625,39.68842424684555
3.423828125,39.95002281268865
3.4248046875,40.292884531878094
3.42578125,40.75360521575657
3.4267578125,41.356509291293676
3.427734375,42.11209226106886
3.4287109375,43.01637209011395
3.4296875,44.051173292876065
3.4306640625,45.185311207128365
3.431640625,46.37659066215248
3.4326171875,47.57448609208115
3.43359375,48.723331781016014
3.4345703125,49.765823455205066
3.435546875,50.64661724818546
3.4365234375,51.31580978266819
3.4375,51.73209358529869
3.4384765625,51.86540435324422
3.439453125,51.698909138519454
3.4404296875,51.230225138126826
3.44140625,50.4718048980488
3.4423828125,49.45047252733945
3.443359375,48.206144064436245
3.4443359375,46.789810645488174
3.4453125,45.26090306464952
3.4462890625,43.68418855452662
3.447265625,42.12637357443088
3.4482421875,40.652599056426574
3.44921875,39.32301657278804
3.4501953125,38.18962551586092
3.451171875,37.293533478174524
3.4521484375,36.66277594988232
3.453125,36.310798984719405
3.4541015625,36.23567167608364
3.455078125,36.42005632551194
3.4560546875,36.831925281700386
3.45703125,37.425976662881716
3.4580078125,38.14566838664619
3.458984375,38.925762636155056
3.4599609375,39.695252195196666
3.4609375,40.38052667330759
3.4619140625,40.908630734738125
3.462890625,41.21046785865087
3.4638671875,41.2238113192558
3.46484375,40.895998094431356
3.4658203125,40.186200181002626
3.466796875,39.067190050588636
3.4677734375,37.52654140168138
3.46875,35.5672316694235
3.4697265625,33.20763774584422
3.470703125,30.480940019208017
3.4716796875,27.43397131419257
3.47265625,24.125566001410988
3.4736328125,20.624480033025677
3.474609375,17.006964770672713
3.4755859375,13.35408617462398
3.4765625,9.748886340388262
3.4775390625,6.273486717000329
3.478515625,3.0062318751632584
3.4794921875,0.01896969651639919
3.48046875,-2.625441435392078
3.4814453125,-4.875315219200852
3.482421875,-6.691935848576752
3.4833984375,-8.050909385676134
3.484375,-8.943018014903
3.4853515625,-9.374541527489756
3.486328125,-9.367026338131424
3.4873046875,-8.956499646863389
3.48828125,-8.192144765195012
3.4892578125,-7.134472749501835
3.490234375,-5.853044810206542
3.4912109375,-4.423818843477274
3.4921875,-2.9262110978996865
3.4931640625,-1.4399795689262547
3.494140625,-0.042048298969445806
3.4951171875,1.1965995650714543
3.49609375,2.213828182358219
3.4970703125,2.958924653819514
3.498046875,3.3947211266319113
3.4990234375,3.4991542809541896
3.5,3.2661728714399887
3.5009765625,2.705929412960031
3.501953125,1.8442223613748148
3.5029296875,0.7211890944004768
3.50390625,-0.6107138252120066
3.5048828125,-2.089369958353181
3.505859375,-3.6461934638284186
3.5068359375,-5.209710458110706
3.5078125,-6.709364425444567
3.5087890625,-8.079359382912386
3.509765625,-9.262343647052091
3.5107421875,-10.212735917224926
3.51171875,-10.899504635097152
3.5126953125,-11.308231315242159
3.513671875,-11.442318306654904
3.5146484375,-11.323240183931146
3.515625,-10.98978408432111
3.5166015625,-10.496275692309013
3.517578125,-9.909841737646873
3.5185546875,-9.306814023621833
3.51953125,-8.768431232483138
3.5205078125,-8.376040154008976
3.521484375,-8.206034840680857
3.5224609375,-8.324798118298743
3.5234375,-8.783922977407313
3.5244140625,-9.615990334756393
3.525390625,-10.831163892765932
3.5263671875,-12.414832479005131
3.52734375,-14.326486262701199
3.5283203125,-16.49995728602288
3.529296875,-18.845089204791282
3.5302734375,-21.250828955452626
3.53125,-23.589657686376306
3.5322265625,-25.723203424954423
3.533203125,-27.508807432000705
3.5341796875,-28.806753786964894
3.53515625,-29.48782095378601
3.5361328125,-29.440777944761706
3.537109375,-28.579428684843947
3.5380859375,-26.848807979678238
3.5390625,-24.230151962145854
3.5400390625,-20.744304975958368
3.541015625,-16.453282547437663
3.5419921875,-11.459784494577647
3.54296875,-5.904540534156956
3.5439453125,0.038530531214101264
3.544921875,6.16926199185395
3.5458984375,12.270088074310129
3.546875,18.11650427943312
3.5478515625,23.48874763163018
3.548828125,28.184222639733992
3.5498046875,32.03013328116036
3.55078125,34.89573674345695
3.5517578125,36.70361399161223
3.552734375,37.43935756837216
3.5537109375,37.15910944356281
3.5546875,35.9944411248587
3.5556640625,34.15415341677037
3.556640625,31.92268176871612
3.5576171875,29.654921605335794
3.55859375,27.767431881365418
3.5595703125,26.72612899377478
3.560546875,27.03074107011781
3.5615234375,29.196448036163204
3.5625,33.7332790230582
3.5634765625,41.123968952312964
3.564453125,51.80108419477273
3.5654296875,66.12430732756744
3.56640625,84.35881837207978
3.5673828125,106.65572078581106
3.568359375,133.0354325345513
3.5693359375,163.37489495227155
3.5703125,197.39934557956317
3.5712890625,234.67925823955414
3.572265625,274.6328783890045
3.5732421875,316.5345800099517
3.57421875,359.52904911095777
3.5751953125,402.65106663224583
3.576171875,444.85042941050193
3.5771484375,485.02132161821015
3.578125,522.0352406402407
3.5791015625,554.776400295395
3.580078125,582.178389516813
3.5810546875,603.2607637970564
3.58203125,617.1641960123834
3.5830078125,623.1828169240684
3.583984375,620.7924357408142
3.5849609375,609.673447277994
3.5859375,589.7274016348252
3.5869140625,561.0864296481901
3.587890625,524.1149750352876
3.5888671875,479.40357243242266
3.58984375,427.7547180351138
3.5908203125,370.16119358524014
3.591796875,307.7775116298181
3.5927734375,241.88543676962058
3.59375,173.85479099772618
3.5947265625,105.10095929505297
3.595703125,37.0406642153096
3.5966796875,-28.9523326749644
3.59765625,-91.58992418002458
3.5986328125,-149.7091178003185
3.599609375,-202.30675547025163
3.6005859375,-248.5681712194223
3.6015625,-287.888709639772
3.6025390625,-319.88732056570564
3.603515625,-344.4117734419926
3.6044921875,-361.5353840037988
3.60546875,-371.5455004865501
3.6064453125,-374.92434051002135
3.607421875,-372.3230872671546
3.6083984375,-364.5304300181303
3.609375,-352.4369562982764
3.6103515625,-336.9969613445264
3.611328125,-319.18932670137866
3.6123046875,-299.9791308765771
3.61328125,-280.28159002322155
3.6142578125,-260.9297893377882
3.615234375,-242.64746315098503
3.6162109375,-226.027823694844
3.6171875,-211.5191381231431
3.6181640625,-199.417425443783
3.619140625,-189.8663058225346
3.6201171875,-182.86370091001595
3.62109375,-178.2747717439284
3.6220703125,-175.8502054716976
3.623046875,-175.24873670719182
3.6240234375,-176.06262420916937
3.625,-177.8447059647193
3.6259765625,-180.13562934290655
3.626953125,-182.48989769602835
3.6279296875,-184.49948686216618
3.62890625,-185.8139572485239
3.6298828125,-186.15620927723458
3.630859375,-185.3332892092452
3.6318359375,-183.24193423917995
3.6328125,-179.8688348191452
3.6337890625,-175.2858728635127
3.634765625,-169.64085199734356
3.6357421875,-163.14445707203993
3.63671875,-156.05435375802762
3.6376953125,-148.65745695314212
3.638671875,-141.25145406128448
3.6396484375,-134.12666441811075
3.640625,-127.54925127529623
3.6416015625,-121.74668313941228
3.642578125,-116.89617519291319
3.6435546875,-113.11663975002293
3.64453125,-110.46444975950382
3.6455078125,-108.93308483169072
3.646484375,-108.45649896355393
3.6474609375,-108.91583631519609
3.6484375,-110.14893798902541
3.6494140625,-111.96193872021865
3.650390625,-114.1421551010641
3.6513671875,-116.4714208971677
3.65234375,-118.73903150131281
3.6533203125,-120.75351676495669
3.654296875,-122.3525645130169
3.6552734375,-123.41055848874123
3.65625,-123.84336463696026
3.6572265625,-123.61018731750511
3.658203125,-122.71251021686473
3.6591796875,-121.19032326412436
3.66015625,-119.11600528636914
3.6611328125,-116.58637231605859
3.662109375,-113.71350519884103
3.6630859375,-110.61503166649585
3.6640625,-107.40455429017308
3.6650390625,-104.1828865781532
3.666015625,-101.03068761835453
3.6669921875,-98.00297646483665
3.66796875,-95.12586856605546
3.6689453125,-92.39571735694568
3.669921875,-89.78067527696108
3.6708984375,-87.22452102330669
3.671875,-84.65244466290142
3.6728515625,-81.97834929482201
3.673828125,-79.11312573645745
3.6748046875,-75.97329161986475
3.67578125,-72.48936233156468
3.6767578125,-68.61333972764572
3.677734375,-64.32476411879372
3.6787109375,-59.63487159600926
3.6796875,-54.5885259864399
3.6806640625,-49.26374424042315
3.681640625,-43.76879612201774
3.6826171875,-38.23702317541585
3.68359375,-32.819677422469454
3.6845703125,-27.677217021554952
3.685546875,-22.969605295494205
3.6865234375,-18.846233968183647
3.6875,-15.436126203800088
3.6884765625,-12.839067692640988
3.689453125,-11.118264813399634
3.6904296875,-10.295040719122055
3.69140625,-10.345958404249684
3.6923828125,-11.202611909625427
3.693359375,-12.754161978274775
3.6943359375,-14.852520954171814
3.6953125,-17.31992423038764
3.6962890625,-19.95847261764316
3.697265625,-22.561101265667364
3.6982421875,-24.923334398107958
3.69921875,-26.855127338144282
3.7001953125,-28.19208193066706
3.701171875,-28.805349763803047
3.7021484375,-28.609608104641502
3.703125,-27.568602149377703
3.7041015625,-25.697887648855346
3.705078125,-23.064571841028474
3.7060546875,-19.784028084230336
3.70703125,-16.013739957764837
3.7080078125,-11.944602995051923
3.708984375,-7.7901662104797476
3.7099609375,-3.7744218303444934
3.7109375,-0.11884245810522395
3.7119140625,2.970585273137989
3.712890625,5.315575785663415
3.7138671875,6.77629245085941
3.71484375,7.2599935778375535
3.7158203125,6.72706062684657
3.716796875,5.194042280073177
3.7177734375,2.733519363855569
3.71875,-0.5292212465695032
3.7197265625,-4.422531465124433
3.720703125,-8.737418954716363
3.7216796875,-13.238735239642093
3.72265625,-17.677908637814475
3.7236328125,-21.80650655514276
3.724609375,-25.3898638833791
3.7255859375,-28.220010412284218
3.7265625,-30.127170356012943
3.7275390625,-30.98918877756466
3.728515625,-30.738357945829623
3.7294921875,-29.365264441492137
3.73046875,-26.91944645005819
3.7314453125,-23.50683029877996
3.732421875,-19.284095527179165
3.7333984375,-14.450288292361591
3.734375,-9.236154054046343
3.7353515625,-3.8917838142883303
3.736328125,1.326743019219223
3.7373046875,6.170986476605726
3.73828125,10.413303841353978
3.7392578125,13.858830081861099
3.740234375,16.355645911416126
3.7412109375,17.80260517584818
3.7421875,18.15442772698966
3.7431640625,17.423818129940454
3.744140625,15.680535465752149
3.7451171875,13.047505658814915
3.74609375,9.694225845034968
3.7470703125,5.827851600710477
3.748046875,1.6824748356652486
3.7490234375,-2.492813181789253
3.75,-6.44642698275254
3.7509765625,-9.936697848178603
3.751953125,-12.743548914020488
3.7529296875,-14.678847877759818
3.75390625,-15.594936157528123
3.7548828125,-15.390943462181594
3.755859375,-14.016624701178173
3.7568359375,-11.47359434860662
3.7578125,-7.813973803380316
3.7587890625,-3.136602137373208
3.759765625,2.4189173638261448
3.7607421875,8.67995951966813
3.76171875,15.449954166575495
3.7626953125,22.518291878204938
3.763671875,29.670530304081073
3.7646484375,36.698379622189414
3.765625,43.40897972406094
3.7666015625,49.63304018357106
3.767578125,55.23149242864828
3.7685546875,60.10039658140605
3.76953125,64.17394729908949
3.7705078125,67.42552761120835
3.771484375,69.8668613329742
3.7724609375,71.54540778039711
3.7734375,72.54022263555512
3.7744140625,72.95657235671935
3.775390625,72.9196340911426
3.7763671875,72.56763746676405
3.77734375,72.04480896757906
3.7783203125,71.49446503518097
3.779296875,71.05256877343736
3.7802734375,70.84202013276017
3.78125,70.96789424859082
3.7822265625,71.51378101366264
3.783203125,72.53931484235163
